1.7102526909112932,-9.745326286554336,1.3485605952143669,-0.2583365127367556,0.6140823924700901,-0.4393514667310572,0.602607127510529
1.6767183244228363,-9.714187524318696,1.3629324665665628,-0.012686724136398446,0.40332064964601166,-0.6375854162691987,0.6562441143055217
1.6683347328007223,-9.675862534046173,1.3773043379187584,0.23486328598348047,0.13333887130534908,-0.742110624964882,0.6134588842052007
1.6886948838829996,-9.619572558403016,1.3497582511603834,0.44794267300169616,-0.15611438412828818,-0.7375859003067722,0.48056498045632634
1.6994737873971464,-9.615979444384575,1.3018520133197309,0.5952679546140732,-0.42261767609294354,-0.6247351798435652,0.27704930450951465
1.6970784755051136,-9.62077006816864,1.306642637103796,0.6551797850959689,-0.6270049681147134,-0.4201493772673706,0.03284387222767314
1.6958808195590973,-9.609991310834886,1.3425723154842855,0.6188743697293789,-0.7393037064967345,-0.1538434323361389,-0.2162330742030232
1.6851019160449505,-9.599212553501129,1.3581418427824974,0.4875477789109447,-0.7417688276445272,0.14184602916629177,-0.43812769100300386
1.6767183244228363,-9.59202632546425,1.359339498728514,0.2867398548046095,-0.6338548633749302,0.40992033310032067,-0.5898928617583893
1.6707300446927549,-9.524957592487336,1.359339498728514,0.04374385629640367,-0.4327930514512524,0.6178287870110235,-0.6550299532023864
1.682706604152918,-9.449505706429482,1.3246074762940407,-0.2056838271588561,-0.1681765464955082,0.7349308720548002,-0.6239290230105513
1.6671370768547058,-9.50459758758545,1.3473629392683506,-0.42482767780333036,0.12112571661539119,0.7440313323462714,-0.5012657792365941
1.663544109016657,-9.568073206543923,1.3844902735948563,-0.5815941556710008,0.39262821361124445,0.6438407748845209,-0.3050579954072314
1.6862995719909668,-9.60520068705082,1.4192222960293295,-0.6529871116828491,0.606434037143008,0.44914852826346113,-0.06411856306320453
1.7174386265873909,-9.588433796167374,1.4108387044072153,-0.6266768507104238,0.7329904357984824,0.18183666271488108,0.19218890161591184
1.7389964336156847,-9.560887563228608,1.3808973057568075,-0.5077940807758591,0.7477985003998617,-0.10664822132027515,0.41420856004908946
1.7294151860475542,-9.569271301031113,1.33778169170022,-0.31429689913335823,0.6528110460684222,-0.3794935916428316,0.5753605923490344
1.7198339384794237,-9.58603819191456,1.3078402930498123,-0.07460623016050036,0.46191518146254806,-0.5966474239162728,0.6519816922964442
1.7006714433431627,-9.61478193461895,1.3162238846719265,0.1760122329610498,0.20313222713402104,-0.7261483671813437,0.6328234674753348
1.701869099289179,-9.607596291303635,1.3018520133197309,0.4007470342324913,-0.08546231756570777,-0.7489544214121876,0.5207353276639638
1.6898925398290159,-9.637537543773652,1.3282004441320896,0.5696777740823259,-0.3676050032796844,-0.6583805129815824,0.3269080840335065
1.679113636314869,-9.632746919989586,1.3425723154842855,0.6501948798347689,-0.5888056127217298,-0.47184714420098745,0.08896539312233416
1.6659394209086895,-9.642328167557716,1.3581418427824974,0.635311350323344,-0.7235227654659957,-0.2159838924146633,-0.16200387100368377
1.6348003663122654,-9.62196816265583,1.3976644890010357,0.5272266286105103,-0.751976730917497,0.07161898934601589,-0.3891449583480232
1.6192308390140535,-9.590828815698623,1.4228152638673783,0.341825987539613,-0.6700380955710176,0.34868865763587636,-0.5591244626755502
1.6503698936104776,-9.564480677247047,1.4491636946797373,0.10626665304441417,-0.4897303787853528,0.5746174943483924,-0.6470597265587377
1.6851019160449505,-9.557294449210167,1.4431754149496556,-0.14490927476627619,-0.23754462142063418,0.7162142854022518,-0.6400085564323191
1.7126480028033257,-9.551306315660478,1.4228152638673783,-0.37987026263121954,0.05640983163112503,0.7522202072923219,-0.5354262546839973
1.7318104979395867,-9.546515691876412,1.3964668330550194,-0.5531431925754932,0.33549588270732605,0.6755971778089217,-0.3536150089156897
1.7533683049678803,-9.50459758758545,1.3557465308904648,-0.6451687811801748,0.5652877091482261,0.49985271684501825,-0.11980947850271316
1.7485776811838152,-9.534538840055466,1.3461652833223343,-0.642414105316918,0.7121231692278269,0.25070375684071206,0.13165232791231918
1.6886948838829996,-9.582445077896118,1.376106681972742,-0.5452774808589518,0.7543951335889437,-0.03530378296616287,0.3637500435652391
1.6527652055025102,-9.590828815698623,1.4347918233275414,-0.36813005618475686,0.6858621800954421,-0.31610491711656247,0.5423569055731348
1.6611487971246244,-9.607596291303635,1.440780103057623,-0.136934561971054,0.5165812314819478,-0.5505387124827149,0.6413266586352577
1.7102526909112932,-9.650711905360222,1.3976644890010357,0.12037682298430778,0.2649956591885536,-0.7065597634761253,0.6450271480612197
1.806065166592598,-9.684246271848679,1.332991067916155,0.35407773447662627,-0.02038166344787587,-0.7540108133148229,0.5528844717907319
1.8767268674075603,-9.693827519416809,1.2275973446667194,0.5358991706408498,-0.3027836727580679,-0.6907405364830299,0.3794886528958681
1.9306213849782945,-9.644723187088967,1.23717859223485,0.6390442690751631,-0.5407219991970025,-0.525974499140749,0.15030957388079336
1.8982846744358541,-9.449505706429482,1.3892808973789217,0.648278599275939,-0.6992736515504261,-0.283806356109719,-0.10102064244441854
1.8743315555155278,-9.22913701236248,1.425210575759411,0.5622037565469338,-0.754980552879372,6.134435443164747e-05,-0.33753710482751953
1.8539714044332505,-9.457888859510422,1.494674620628357,0.3937926975522376,-0.6995486175692404,0.2838431361482495,-0.5243969079552461
1.7377987776696684,-9.748919400572778,1.5880917844176292,0.1619561887587029,-0.5363261623370952,0.5307930036366736,-0.6359113364344727
1.5569527298212051,-9.97767241716385,1.637195678204298,-0.08845275793621005,-0.2968672565356767,0.6932748676159902,-0.6507041566967973
1.4264082317054272,-10.07468240261078,1.625219118744135,-0.32575720567652355,-0.01393235941299773,0.7541007403962593,-0.5701054337969634
1.5174300836026668,-9.953718713521958,1.359339498728514,-0.5153114677329645,0.2709600863212269,0.7045675950352048,-0.405732950190145
1.8216346938908101,-9.851917519569398,1.1892723543941974,-0.6293866127433416,0.5160646511665042,0.5518338162351631,-0.18173939246952875
2.0899096257984637,-9.62436318218708,1.21442312926054,-0.6513059538885304,0.6854034455551149,0.3181652330771301,0.06923550903621459
2.173745542019606,-9.560887563228608,1.3940715211629868,-0.5749950376748757,0.7542232828836062,0.030862234360073997,0.3155558091619419
2.074340098500252,-9.750116910338402,1.4491636946797373,-0.41555771881723574,0.7090941778482981,-0.25463033120800765,0.5095690568529075
1.7485776811838152,-9.859103747606278,1.5353949227929116,-0.19592683467494879,0.5595412978962858,-0.5027111288199395,0.6291325236890692
1.3425723154842855,-9.780058747529983,1.6958808195590973,0.05180874424954333,0.32773437830729363,-0.677053326847717,0.6568902677763278
1.1162153416872025,-9.61118882060051,1.7617518965899945,0.2916331595872879,0.04803999524343581,-0.7521990554797927,0.5889302505572743
1.233585624396801,-9.60879380106926,1.7234269063174725,0.48879935538466085,-0.23841920105306655,-0.7174500705744565,0.4353123832117172
1.69827613145113,-9.920184931755067,2.093502593636513,0.6146803368959056,-0.49017645877585675,-0.5780912516098673,0.218416179592158
2.0156549571454527,-9.77167500972748,2.274348641484976,0.6506177097358532,-0.6738310363471435,-0.34828921672832086,-0.03664630601002262
1.933016696870327,-9.106975813508035,2.465973739027977,0.5895329183266691,-0.753928788931186,-0.0721210919881998,-0.2807861597736359
1.7186362825334074,-8.692587148547172,2.555797788798809,0.4419409527022985,-0.7241907542656961,0.21443637692850992,-0.4839968863644071
1.5006629003584386,-8.883014005422593,2.481543120145798,0.22944345755640408,-0.5889905014328698,0.46963649344134506,-0.6163501058931818
1.402455112785101,-9.462679483294487,2.1497924230992793,-0.016896579684338164,-0.36810997716126664,0.6563943133234886,-0.658297847289423
1.4156293281912804,-10.069891194105148,1.6851019160449505,-0.26112022257610085,-0.09351558718903016,0.7475112465255588,-0.6035710402531782
1.559348041713238,-9.923777461051941,1.3665254344046116,-0.46740931174102057,0.1950652297204744,0.729269324197839,-0.46004819773140215
1.628812086582184,-9.560887563228608,1.3341887238621712,-0.6073125766010814,0.460991514347665,0.5995585485466876,-0.24328543907556718
1.5150347717106343,-9.707001296281815,1.7318104979395867,-0.6536007636743107,0.6528500431603619,0.38285095162702104,0.004244020282224624
1.152145020067692,-9.947729995250702,2.415672043114901,-0.6043377558433037,0.7483574797298187,0.10937570107451697,0.25054723189285344
0.795243548154831,-9.933358708620071,3.3402625796198846,-0.4670669436207386,0.7333953976242714,-0.17984546720029027,0.46003833410687445
0.791650580316782,-9.681850667595864,3.6408740758895877,-0.26174334136357547,0.6110673650625108,-0.441899873374576,0.6023384435007653
1.1629239235818387,-9.395610750317575,3.014500162303448,-0.018262363896220834,0.40023591952141985,-0.6388776872475864,0.6567442390512008
1.7102526909112932,-9.30339138865471,2.194105693101883,0.23394081707315026,0.1249431032043995,-0.744129394538,0.6131332312420452
1.9545745038986206,-9.278240759968758,1.6671370768547058,0.4465814285676986,-0.16279480053919237,-0.7377435056256741,0.47937188119765534
1.7425894014537335,-9.154882051348686,1.8228323498368264,0.5940876644802734,-0.4274490505640843,-0.6236967488173194,0.27449867321891114
1.3018520133197309,-8.904572104811669,2.485136234164238,0.6539778504041924,-0.6299953262854933,-0.4178501832397265,0.02863711587562078
1.0036356827616693,-8.705760925412179,3.0372554790973667,0.6170067831927573,-0.7399981671606407,-0.15046747137975527,-0.22150594156726552
1.1030411262810231,-8.759655881524086,3.1941485542058947,0.48882726562315765,-0.7411249390269579,0.13882260231142388,-0.43875963148762803
1.3545488749444485,-9.021942095160485,3.1498351380228997,0.28846892244314065,-0.6333110229263265,0.4077033036059262,-0.5911690496408938
1.4659308779239655,-9.178835170269013,3.1510329401493076,0.03933321716059025,-0.4266091023234564,0.6207459022580368,-0.6566065006321734
1.4719191576540471,-9.296205745339394,3.083964207172394,-0.20997813429655426,-0.16078160768767774,0.7367092997085013,-0.6223486687297672
1.4731168136000634,-9.453098235726356,2.880362696349621,-0.4281805720759787,0.12877444823833298,0.7441075386963111,-0.49636932825560304
1.4168269841372967,-9.5022025680542,2.689935254752636,-0.5832126165164379,0.39918166567171487,0.6418998864513313,-0.29745853072550044
1.475512125492096,-9.526155686974526,2.52346122443676,-0.6524622496543171,0.6107422762076181,0.4452849962922534,-0.05484666722575757
1.6395909900963308,-9.551306315660478,2.2923134806752206,-0.6258717188890345,0.7323557745713332,0.18326851753665555,0.19583733409854362
1.7437870573997498,-9.599212553501129,2.2240470917522908,-0.507550362368076,0.7461085968424402,-0.10567711368565509,0.4177881508861982
1.7354034657776356,-9.587235701680184,2.4420204739272595,-0.3096292669898666,0.6463236923504826,-0.38511008707818967,0.5814513071275923
1.5964753760397434,-9.393215730786324,2.733050868809223,-0.07054723765010454,0.452226219367955,-0.6008914083899117,0.6553198067350737
1.494674620628357,-9.266263908147812,2.8707814487814907,0.17851770154886118,0.19175088653434444,-0.7282360290233267,0.6332734905073331
1.5581503857672214,-9.242310789227487,2.5737627741694453,0.4012143682928551,-0.09665009550471179,-0.7489316596041907,0.518446871874841
1.6886948838829996,-9.324949488043785,2.067154162824154,0.5650544243055391,-0.37079161907497615,-0.6601973265372283,0.32766837325196635
1.7186362825334074,-9.424354493021966,1.9318190409243108,0.6461929700029103,-0.5908410568467554,-0.47481650269189696,0.08883006154710774
1.6108472473919393,-9.347704512476922,2.1102697768807412,0.6326954313694625,-0.7244479597729664,-0.2196495366244026,-0.16317391263826983
1.4731168136000634,-9.233927636146547,2.3545915898680687,0.5227137753204664,-0.7511308120169671,0.07476055549406496,-0.3962116500952181
1.4731168136000634,-9.281833873987198,2.5342399817705155,0.3376653533150347,-0.6655093511688253,0.35160130686168556,-0.5652043291506506
1.475512125492096,-9.351297626495361,2.5450190314650536,0.10299897715306729,-0.482270349520586,0.5769038671151455,-0.6511439539658679
1.5150347717106343,-9.330937621593476,2.547414343357086,-0.14681005942795572,-0.22834100552263992,0.717565916849411,-0.6414096558547698
1.5737199130654336,-9.431540721058846,2.5294493579864503,-0.3751229425290939,0.05911906933894177,0.752938644152268,-0.5374673122813666
1.625219118744135,-9.51417883515358,2.4827409222722054,-0.5484067089602114,0.3377701571139414,0.6777580838053876,-0.3546905445132455
1.67552066847682,-9.552503825426102,2.3018947282433513,-0.6423058760552824,0.5713864787938179,0.4980126813739841,-0.11377180066762028
1.701869099289179,-9.617177538871765,2.0994908733665945,-0.6387631201834836,0.7149582398584342,0.24820862340252722,0.13859607072573463
1.6467769257724285,-9.641130657792091,2.047991667687893,-0.5414723023163444,0.7536861112950034,-0.038121535425621696,0.37055598767533926
1.55216210603714,-9.609991310834886,2.2228494358062747,-0.3648385145872726,0.6816333603993509,-0.319023225085078,0.5481724200657642
1.4276058876514435,-9.542922577857972,2.380940020680428,-0.13474128985448627,0.5094134152966778,-0.5530868109050464,0.6453198716349973
1.4240129198133946,-9.451900725960732,2.473159674704075,0.11504777679043089,0.26245317223835907,-0.7058314182032392,0.6478304952028775
1.4539543184638024,-9.333332641124725,2.6312502595782283,0.34798896197278256,-0.02306378066339597,-0.7548951481573202,0.5554323177986258
1.437187135219574,-9.1991951751709,2.67556338340044,0.5333303837224855,-0.31148997113073007,-0.690523508843771,0.37644386489553766
1.5126394598186017,-9.226741408109666,2.480345610380173,0.6353388870529242,-0.547169314455369,-0.5251062384947451,0.14564916137998468
1.6419863019883634,-9.545318182110787,2.1533853909373284,0.644080517554836,-0.7027155733805422,-0.28284260537449296,-0.10654187167362504
1.6815089482069017,-9.764488781690599,1.9689463752508165,0.5582460751247972,-0.7553852783263643,0.0010166559350484011,-0.34315210520448564
1.5545574179291726,-9.669874400496484,2.059968227148056,0.3904347517044189,-0.6971459562477894,0.2849821221327059,-0.5294652117123501
1.376106681972742,-9.444715082645416,2.2432095868885518,0.16531749009924132,-0.5363973955789418,0.5271336417214415,-0.6380267120183186
1.3030496692657472,-9.346507002711297,2.35099862203002,-0.08401155215407792,-0.2969122140392298,0.6917533067349813,-0.6528878608767391
1.3341887238621712,-9.275845155715944,2.5534024769067765,-0.32637142707569133,-0.0069128786239526585,0.7548801800077382,-0.5688495561474862
1.3545488749444485,-9.197997665405273,2.7067024379968645,-0.5147768864426079,0.2777207796839409,0.704349995936173,-0.40220269633719696
1.4323965114355088,-9.359681364297867,2.62047120988369,-0.6274718586231036,0.5216351104908855,0.5504813741189218,-0.1764826758845554
1.571324601173401,-9.564480677247047,2.467171248793602,-0.6481154385600394,0.6888825110877769,0.31583201030278113,0.07508265768891544
1.6419863019883634,-9.638735053539277,2.2384189631044866,-0.5736130391854543,0.7550473102437798,0.03491857596673702,0.31567757858694173
1.637195678204298,-9.638735053539277,2.0659565068781376,-0.4147182104640596,0.7105050679027773,-0.2512313722151968,0.5099746582025689
1.6156378711760044,-9.571666320562363,2.0659565068781376,-0.18898996197035448,0.5569083539255841,-0.505717144570378,0.6311783022965253
1.5030582122504712,-9.526155686974526,2.1857221014797688,0.05970928824877041,0.3237206939617843,-0.6792966731280191,0.6558930881438919
1.4395824471116068,-9.51058572113514,2.3222548793256284,0.2996484311174566,0.04292745848030801,-0.752963476281941,0.5843064730282246
1.4192222960293295,-9.40998262166977,2.542623719573021,0.49559757428800616,-0.2441065028940919,-0.7158361718903058,0.4270522621624822
1.4276058876514435,-9.30698450267315,2.7210743093490604,0.618789310980832,-0.4952898885621752,-0.5734766682403805,0.20715266324102075
1.4539543184638024,-9.302193878889085,2.719876799583435,0.651038387479069,-0.673747637203654,-0.3469281681798876,-0.04305793207406584
1.5569527298212051,-9.49262132048607,2.5102868628501893,0.5876802998683556,-0.7533319844489307,-0.06960936123539958,-0.2868402398222315
1.6419863019883634,-9.62077006816864,2.352196277976036,0.4334612571183542,-0.7203937309896246,0.22448382208507803,-0.492697903943481
1.6276144306361675,-9.52016696870327,2.240814274996519,0.21819999791917322,-0.5811585778067963,0.4787708218013361,-0.6208236211206272
1.602463655769825,-9.468668201565743,2.1378158636391165,-0.029166719997578874,-0.35666878318598666,0.6628190518228526,-0.6577291129985544
1.5270113311707973,-9.534538840055466,2.2108728763461114,-0.27223410804079423,-0.07966150226852041,0.7495581994048839,-0.5980845602257795
1.40604808062315,-9.435133835077286,2.498310303390026,-0.4753261105285997,0.20910733484003421,0.7260466060286045,-0.45077215646066204
1.3222121644020082,-9.236322655677796,2.6635868239402773,-0.6086326414403372,0.4670827223436574,0.5958883931649175,-0.23731215972370354
1.4300011995434763,-9.243508883714677,2.6492149525880815,-0.6526138897005633,0.656376313758734,0.3783457345587998,0.010943073040023742
1.5689292892813684,-9.354890740513802,2.489926857948303,-0.5982802605951708,0.7503515601961621,0.09852570452917896,0.2632982176931488
1.6479745817184448,-9.43633134484291,2.304290040135384,-0.45616562180834985,0.7308186453889486,-0.18982565821798664,0.4709386929465148
1.659951141178608,-9.484237582683564,2.2252447476983073,-0.24690763494336826,0.6040039023851832,-0.4504084558277053,0.6093834003556748
1.6204284949600698,-9.497411944270134,2.2803369212150577,-0.0013799378834839853,0.38835758495509004,-0.6448639718397129,0.6582757323511157
1.513837115764618,-9.429145116806032,2.444415785819292,0.24430732661645466,0.11549244185980018,-0.7444655966117656,0.6105296073871189
1.440780103057623,-9.365669497847557,2.561786214709282,0.45401396126269045,-0.1742793423744432,-0.7345757286853989,0.47317706265879694
1.4515590065717698,-9.392018221020699,2.5917274671792985,0.5994797108500162,-0.44400225288779044,-0.6127648703817911,0.2607782378492012
1.487488684952259,-9.39800635457039,2.613285274207592,0.6526972637440438,-0.6416921005749696,-0.40250053915219985,0.014520535214300365
1.5306042990088464,-9.449505706429482,2.5031009271740916,0.6100939412722651,-0.7452347157018074,-0.13323157808388825,-0.23379467046320118
1.5821035046875478,-9.443516988158226,2.3917189241945747,0.47795825924519064,-0.7394555168962288,0.15555216283441028,-0.44784480078323513
1.5952777200937271,-9.418366359472275,2.3054876960814,0.27561083975708073,-0.6252570870765793,0.42148161759785374,-0.5961924908081317
1.5952777200937271,-9.473458825349809,2.2875228568911554,0.032731779721709334,-0.4193601711030361,0.6256721173050583,-0.6569627684394963
1.586894128471613,-9.542922577857972,2.275546297430992,-0.21501861757916327,-0.1518221514852901,0.7381349290164189,-0.6211874555869987
1.5162324276566506,-9.544120087623597,2.347405654191971,-0.43574562113531023,0.14489735478294902,0.7408954406739956,-0.49010657639618826
1.4539543184638024,-9.461481973528862,2.461183115243912,-0.5867982509444709,0.4135011436452524,0.6332720521018136,-0.2892250419990218
1.4276058876514435,-9.389622616767884,2.528251848220825,-0.651661280879167,0.6213271060570661,0.4326489594723931,-0.04588115243899521
1.4623379100859166,-9.376448255181312,2.6060993385314943,-0.620862055774497,0.7378631103781126,0.1685355722924586,0.20416684087935552
1.5162324276566506,-9.41357573568821,2.5797509077191356,-0.4988340641385889,0.7461309292308737,-0.12030742090611907,0.42423971687592993
1.571324601173401,-9.462679483294487,2.5150774866342545,-0.3035270914545768,0.6448890662039679,-0.3914778290373701,0.5820090260604958
1.5916847522556783,-9.5022025680542,2.3989048598706724,-0.06365011695640854,0.44904810636061937,-0.6051434934619475,0.6542979543801488
1.6072542795538902,-9.582445077896118,2.2587791141867637,0.19147553900127867,0.1806077645941001,-0.7317328995674753,0.6287168814522693
1.5928824082016946,-9.641130657792091,2.2228494358062747,0.4124343462980346,-0.10879218757042586,-0.7466850403413519,0.5104151451982865
1.4994652444124223,-9.473458825349809,2.2994994163513183,0.5728968974789405,-0.3822623489192913,-0.6519470807318345,0.31722176057601914
1.4539543184638024,-9.382436973452569,2.366568149328232,0.6492473061463429,-0.5995837015062832,-0.4614831929209458,0.07752794980670111
1.4970699325203896,-9.333332641124725,2.4312415704131127,0.6304186064631727,-0.7287809939085992,-0.20333275450878652,-0.17351205861984184
1.5318019549548627,-9.299798274636268,2.4336368823051453,0.5189912939401311,-0.7511158024484439,0.0846400562890545,-0.3991355020515769
1.5773128809034824,-9.323751393556595,2.420462666898966,0.33122699931485416,-0.6632690325295392,0.3602951708353462,-0.5661715776025281
1.5952777200937271,-9.353693230748178,2.42884625852108,0.08866200099709527,-0.47265766396594916,0.5874592826624391,-0.650865096227456
1.5821035046875478,-9.401599468588829,2.378544708788395,-0.1616389435704868,-0.21593148769831313,0.7222364465753329,-0.6368837882848382
1.5809058487415315,-9.468668201565743,2.3306384709477426,-0.3881578164845619,0.07249944689650759,0.7509341869704174,-0.5293157720498379
1.5821035046875478,-9.49262132048607,2.309080663919449,-0.5576791840058333,0.3503082740835616,0.6692916843021651,-0.34398645636006536
1.5485691381990911,-9.473458825349809,2.3545915898680687,-0.645283940577666,0.576672497202803,0.48924234746281703,-0.1081637298335931
1.4970699325203896,-9.430343211293222,2.4300439144670967,-0.6380801238781597,0.7183191222911908,0.23725529156041988,0.14346191372286177
1.4779074373841286,-9.41118071615696,2.4719618725776673,-0.5336495628347598,0.7539094673022027,-0.05651742954872984,0.3790045373812603
1.5078488360345363,-9.475853844881058,2.5354377838969233,-0.35238897376257006,0.6764591850867916,-0.3353749175232088,0.552945428391064
1.5246160192787648,-9.453098235726356,2.5546002790331843,-0.11940941060154603,0.4996808404682379,-0.5649218486215778,0.6456963336420036
1.55216210603714,-9.512981325387955,2.453997179567814,0.131120189806965,0.24958507675271926,-0.7115293729428298,0.6436153639612001
1.5821035046875478,-9.53932946383953,2.3462079982459545,0.3624099816838349,-0.03703302171356253,-0.7536322528106686,0.5471069255659279
1.5797081927955152,-9.523760082721711,2.2875228568911554,0.5405895787432587,-0.3181892380996481,-0.6851186254418254,0.3703120105862827
1.5545574179291726,-9.449505706429482,2.285127544999123,0.639449583129889,-0.5526502613730582,-0.516074408307767,0.1391011298627354
1.5533597619831563,-9.4195638692379,2.3725564290583137,0.6433166993556588,-0.7084888961277033,-0.2647932822209338,-0.11862388496653786
1.5294066430628301,-9.359681364297867,2.498310303390026,0.5515170128548452,-0.755528573495256,0.020417943712337034,-0.35297119817125555
1.4886863408982753,-9.291415121555328,2.604901828765869,0.3786178508194183,-0.6916022858282144,0.3026910407389104,-0.5354558199650732
1.4671285338699818,-9.317763260006904,2.6216690120100976,0.15007658274241914,-0.5261116613872716,0.5404895533772919,-0.6391827451947514
1.5174300836026668,-9.469865711331368,2.5486118531227113,-0.10051515667902675,-0.2833692124819674,0.6988877632847763,-0.6489641646700862
1.55216210603714,-9.589631305932999,2.448008753657341,-0.3362909559824479,0.0009058881562851027,0.7546105394675902,-0.5634452111922617
1.55216210603714,-9.680653157830239,2.4072884514927866,-0.5226889275094084,0.2850826692894696,0.6995122462728616,-0.39523002674917135
1.5437785144150258,-9.695025029182435,2.4336368823051453,-0.6339122797451066,0.5323105575737427,0.536819529844453,-0.16317317261570058
1.4994652444124223,-9.594421929717065,2.470764362812042,-0.6486307402922153,0.694870593342479,0.2978796372217238,0.08775387731888606
1.4707215017080308,-9.430343211293222,2.467171248793602,-0.5682318819496963,0.7554642575180197,0.015264682506268262,0.3258117146706615
1.4719191576540471,-9.365669497847557,2.443218129873276,-0.4044314012230382,0.705289420919246,-0.26954853437376636,0.516086874529007
1.468326189815998,-9.3321351313591,2.486333743929863,-0.18121693708268852,0.5517186425026088,-0.5148368386878559,0.6306425221623911
1.4527566625177861,-9.31656575024128,2.570169660151005,0.06869330868404935,0.3171809253887266,-0.6846601233609113,0.652623938720463
1.4323965114355088,-9.308182012438774,2.585739333629608,0.31386750969912974,0.02922072264681834,-0.7544052608889701,0.575765610353996
1.4647332219779492,-9.395610750317575,2.455194689333439,0.5068461889781509,-0.2566976246580591,-0.7105644337982936,0.4151041503456031
1.5186277395486834,-9.489028206467628,2.342615030407906,0.6254347419277122,-0.5049348953732541,-0.5625127424865161,0.19352402839057298
1.5461738263070584,-9.461481973528862,2.3054876960814,0.6522712024496949,-0.6790906696366303,-0.33194288168787744,-0.05649835541013282
1.5282089871168136,-9.406390092372895,2.359382213652134,0.5833887562718686,-0.7536036507654004,-0.05255575572552178,-0.29829010903605563
1.4970699325203896,-9.387227597236635,2.40609079554677,0.4288679696356037,-0.7174677910696791,0.23460182749910982,-0.49626023005305203
1.5102441479265691,-9.42675009727478,2.415672043114901,0.21144227776199384,-0.5759765531030335,0.4873022756472733,-0.6213530925322228
1.5222207073867322,-9.459086953997613,2.481543120145798,-0.04310602327732785,-0.3437114958389802,0.671688617134678,-0.6548577555447054
1.5006629003584386,-9.459086953997613,2.480345610380173,-0.2854275939980531,-0.06546463676366078,0.7521307902473483,-0.5903767816232138
1.5533597619831563,-9.534538840055466,2.378544708788395,-0.4858690474092406,0.22233895837726933,0.7221553286760635,-0.4393043792430426
1.6000683438777925,-9.5297482162714,2.339022062569857,-0.6151119905482847,0.4774329239211903,0.5861648167576005,-0.22384336004295216
1.5761152249574661,-9.460284463763237,2.3306384709477426,-0.6541154605956375,0.6625055298874191,0.3641719345299373,0.024457906269143247
1.5485691381990911,-9.376448255181312,2.342615030407906,-0.5970995425304341,0.7504222391937919,0.08867155014171212,0.26921358700627995
1.5485691381990911,-9.329740111827851,2.377347052842379,-0.4524505548063785,0.7281989634908062,-0.19980532423948266,0.4744392452483997
1.5545574179291726,-9.32255388379097,2.3569869017601013,-0.23557865698467742,0.5949568172330811,-0.46446782505918954,0.6122080704188436
1.5773128809034824,-9.365669497847557,2.347405654191971,0.011486369966095372,0.3762042473178639,-0.6543231520821001,0.6558960590324858
1.583301160633564,-9.395610750317575,2.39650954797864,0.25687667539199527,0.10217733606313796,-0.7481436674597968,0.6032041267053809
1.5809058487415315,-9.444715082645416,2.461183115243912,0.4645298810055881,-0.1869379318477309,-0.7320663475796769,0.46189291186462145
1.5701269452273847,-9.49142322599888,2.470764362812042,0.6039096193543189,-0.44855225654588676,-0.6084315257875026,0.2527946265781896
1.5844988165795804,-9.527353196740151,2.4959149914979935,0.6546611078544644,-0.64420204259496,-0.3954463235860131,0.006690840123093044
1.5892894403636457,-9.568073206543923,2.4504040655493737,0.6093509627417141,-0.7452803051263325,-0.1244124438276386,-0.24035435260752355
1.6204284949600698,-9.625560691952705,2.409683763384819,0.4704126118611172,-0.7354193924290324,0.1715938299528657,-0.45653679957197524
1.5952777200937271,-9.60160757303238,2.342615030407906,0.2648189957142949,-0.6164802897799458,0.43551462810315866,-0.6001249540969561
1.55216210603714,-9.534538840055466,2.3102783198654655,0.02030466711056664,-0.4070905204815207,0.6355661240960824,-0.6556834072394213
1.4994652444124223,-9.435133835077286,2.453997179567814,-0.2272119777489141,-0.13791966179532847,0.7423029402700715,-0.615092862033121
1.4491636946797373,-9.333332641124725,2.5977158930897715,-0.4414331953903316,0.15153224906683882,0.7400783965031501,-0.48420933337715916
1.479105093330145,-9.31057761669159,2.6408315071463586,-0.5908554801622053,0.4186951226567575,0.6292426595967877,-0.28220182701267854
1.5689292892813684,-9.390820126533509,2.5354377838969233,-0.6537842189596035,0.6282905969965895,0.42042431460984514,-0.032565571542542804
1.6000683438777925,-9.515376344919206,2.3258478471636774,-0.6180682807913894,0.7399696743110168,0.15375961436841962,0.21632027729479889
1.578510536849499,-9.53094631075859,2.2959064485132696,-0.49155681652679495,0.7430387037637317,-0.1355464141893152,0.4334657430934706
1.479105093330145,-9.43633134484291,2.385730644464493,-0.2928804816987099,0.6369388833878774,-0.4050012316298556,0.5869445328536893
1.40604808062315,-9.380041369199754,2.4504040655493737,-0.05123757559443398,0.4372527589487888,-0.6149830804326996,0.6542022213508487
1.4491636946797373,-9.41716884970665,2.409683763384819,0.19784274933392268,0.1734488627150835,-0.7345602600015713,0.6254558041822482
1.5413832025229932,-9.442319478392601,2.361777525544167,0.41794603620873544,-0.11577142652579889,-0.7462704102720445,0.5049738234502679
1.5916847522556783,-9.360878874063493,2.3737540850043297,0.5796371711195958,-0.3939135679371806,-0.6448696865989153,0.30495235391334397
1.5916847522556783,-9.296205745339394,2.462380625009537,0.651687632166369,-0.6073461865102465,-0.44979081254646824,0.0642033080272338
1.5737199130654336,-9.254287641048432,2.511484664976597,0.6280918100978438,-0.7316622114306712,-0.18866103826403935,-0.1859518730573288
1.590487096309662,-9.304588898420334,2.420462666898966,0.5122312330595736,-0.7486751113523817,0.10014104143511703,-0.40874993986550967
1.6240214627981187,-9.400401374101639,2.3533939339220526,0.32116747619077485,-0.6558907774406392,0.374247767931094,-0.571486962672077
1.5976730319857597,-9.414773245453835,2.347405654191971,0.08286665164770218,-0.4667996344917222,0.593553050837216,-0.6503276059994119
1.55216210603714,-9.38842510700226,2.352196277976036,-0.16756772019280156,-0.2091901515566672,0.7256799563018107,-0.633679051778491
1.5306042990088464,-9.459086953997613,2.3414173744618894,-0.3982419963775488,0.08598630121922392,0.7505300633755362,-0.5203021163644975
1.5306042990088464,-9.542922577857972,2.385730644464493,-0.5646240752388627,0.3618514564200103,0.6631793428147462,-0.3323497200407693
1.487488684952259,-9.484237582683564,2.420462666898966,-0.6481571965565565,0.5846050536804208,0.4785118826062304,-0.09568467990174263
1.475512125492096,-9.472260730862619,2.4336368823051453,-0.6365950292893112,0.7216105075141592,0.22359389717598502,0.15501875136561272
1.444373070895672,-9.50459758758545,2.473159674704075,-0.5316231867054354,0.7527316837365654,-0.06415943825835872,0.38295608904761513
1.4240129198133946,-9.474656335115434,2.467171248793602,-0.3486335204202675,0.6734379984303835,-0.3424223887398117,0.5546916606540708
1.437187135219574,-9.487830696702003,2.4911243677139283,-0.10837119605449679,0.4901469849894622,-0.574972320260988,0.6460792891783126
1.4587449422478675,-9.487830696702003,2.4563924914598467,0.14260874870870718,0.23813198811150443,-0.7169393392630656,0.6394950233167089
1.482698061168194,-9.5297482162714,2.359382213652134,0.37272054355939577,-0.048769556507949105,-0.7537767371752087,0.5390005169388088
1.5234183633327485,-9.532143820524217,2.2491978666186334,0.5481885635879794,-0.32844361448755927,-0.6800628856195406,0.35934462909095904
1.4922793087363244,-9.489028206467628,2.2156635001301765,0.6432458228803546,-0.5599007068339871,-0.5065884642517721,0.1269414736042092
1.463535566031933,-9.431540721058846,2.2623720820248128,0.6439460443686119,-0.7092193285479589,-0.2587048382326938,-0.12415008107526902
1.4431754149496556,-9.427947607040405,2.342615030407906,0.5501413869735297,-0.7544275423978634,0.02724345737977765,-0.3569892598389445
1.421617607921362,-9.429145116806032,2.467171248793602,0.3706286831971842,-0.6859374017417941,0.31555485592417243,-0.5408783532236363
1.3856879295408726,-9.39800635457039,2.6228665217757228,0.14025576806595588,-0.5168460156641943,0.5505841529032566,-0.6403558434090219
1.356944186836481,-9.381238878965378,2.5713674622774128,-0.1105724271291379,-0.27199658657500714,0.7047986959898974,-0.6457943894005709
1.3856879295408726,-9.471063221096992,2.505496239066124,-0.34512177876262584,0.012722998208763998,0.7556483913410763,-0.5565290574659552
1.3952691771090031,-9.479446958899498,2.359382213652134,-0.529030620804164,0.2955343721913806,0.6957741972527579,-0.3855960367305241
1.3856879295408726,-9.479446958899498,2.2491978666186334,-0.6353289637709917,0.5350204834810193,0.5339744815447103,-0.15805519007129215
1.359339498728514,-9.445912592411041,2.3054876960814,-0.648487748307808,0.6960952895089906,0.29379788113252375,0.09272428624747238
1.33778169170022,-9.389622616767884,2.3689634612202646,-0.5633337453781905,0.7551592529536678,0.0035728765372967514,0.33522653318299217
1.3509559071063997,-9.378843859434129,2.436032194197178,-0.3964548529390946,0.7006935094015311,-0.2808190967492472,0.5224871198073157
1.3725137141346933,-9.439924458861352,2.434834538251162,-0.1713531018087792,0.5433824064834607,-0.5240342619433546,0.6330574753797927
1.3701184022426607,-9.448307611942292,2.5102868628501893,0.07887296319600497,0.3062809682818594,-0.6902868100018112,0.6507496785112781
1.359339498728514,-9.437528854608535,2.566576838493347,0.31752027021941787,0.02418400791422417,-0.7551902160304398,0.5729605129264059
1.3892808973789217,-9.430343211293222,2.518670600652695,0.509532274736398,-0.2613892267066719,-0.7092387106927481,0.41113621151453955
1.4743144695460797,-9.503400077819824,2.3953118920326233,0.6268197909289451,-0.5085020673679316,-0.5592695488180405,0.18905070469902666
1.513837115764618,-9.547713201642036,2.25997677013278,0.6515390752374254,-0.6840599052668148,-0.32105039956060355,-0.06697402770547332
1.5246160192787648,-9.562085072994233,2.212070532292128,0.5789696512259828,-0.7541187920939973,-0.04030217187195581,-0.30736741094715564
1.4503613506257536,-9.51777194917202,2.333033782839775,0.42147153566902024,-0.7134230724615195,0.24644163222243062,-0.502648770224207
1.4072457365691662,-9.453098235726356,2.448008753657341,0.20212659385860104,-0.5679132383385651,0.49702734114348357,-0.6241660163215901
1.398862144947052,-9.471063221096992,2.5066940411925316,-0.046815231832176625,-0.33904823943099743,0.6745710429081164,-0.6540707404226982
1.4108387044072153,-9.486632602214813,2.517472798526287,-0.28890740769028245,-0.06044180669819045,0.7530912134180625,-0.5879905799051971
1.440780103057623,-9.50819070160389,2.4755549865961077,-0.49263570259152084,0.2335968639539011,0.7190414746897522,-0.4309546697264664
1.4467683827877045,-9.527353196740151,2.4324392263591292,-0.6186040735392496,0.48646406090362837,0.578891345856213,-0.2134631756125161
1.444373070895672,-9.462679483294487,2.4336368823051453,-0.6537803449525662,0.6679766813045499,0.3537277301866894,0.03542748486748468
1.425210575759411,-9.415971339941025,2.4312415704131127,-0.5929112418790262,0.7514437417290242,0.07662748525250852,0.27913579271320826
1.4539543184638024,-9.486632602214813,2.3653704933822155,-0.4449038502136961,0.724636852184659,-0.2116753904385735,0.4818252023333934
1.4910816527903081,-9.558491958975793,2.355789245814085,-0.23147030692434745,0.5913930667586431,-0.4689421162583904,0.6138151425317379
1.4707215017080308,-9.581247568130493,2.3737540850043297,0.01598716494722358,0.37129505713945765,-0.6573201284292576,0.6556025014156838
1.437187135219574,-9.553701335191727,2.4420204739272595,0.26672911909261593,0.08973637312492441,-0.7499945834365151,0.5985909163881035
1.425210575759411,-9.535736934542657,2.493519679605961,0.47217301285061847,-0.19895255882002488,-0.7289523598235135,0.4539812577433844
1.4419777590036393,-9.505795097351074,2.5354377838969233,0.608281982457102,-0.45833856804207995,-0.6008092883842282,0.2427900036130625
1.4719191576540471,-9.456691349744798,2.5390306055545806,0.6551061798919691,-0.6503927042379594,-0.38445895500936905,-0.004066356414476145
1.5102441479265691,-9.441121968626977,2.486333743929863,0.6057173183948917,-0.7469597072756738,-0.11172616050775305,-0.2503497372903294
1.5509644500911237,-9.477051354646683,2.4492064096033572,0.4674075469660247,-0.7338773491674421,0.17733323292476555,-0.4598990605759297
1.5270113311707973,-9.554899429678917,2.415672043114901,0.26043347038430736,-0.6130788447307904,0.4404090431858914,-0.6019539951916867
1.475512125492096,-9.49860945403576,2.400102515816689,0.009038824730576574,-0.3964367273371658,0.6425321203451116,-0.6556742294695611
1.4623379100859166,-9.471063221096992,2.366568149328232,-0.23806065143936816,-0.12560322787341144,0.7446353380142173,-0.6107938840267605
1.437187135219574,-9.406390092372895,2.481543120145798,-0.45020957031105546,0.16371979266697426,0.7373495899439191,-0.47625912537079235
1.4168269841372967,-9.327344507575036,2.5773555958271026,-0.5962396724508585,0.4289539656825581,0.6217781163890322,-0.27182480074600773
1.4455707268416882,-9.298600764870644,2.643226819038391,-0.6547713813483652,0.6311629354517312,0.4149116536248321,-0.027497395611493274
1.5042558681964875,-9.308182012438774,2.619273700118065,-0.6171881425025891,0.7406999311005567,0.1472124425997349,0.2208413583676171
1.5353949227929116,-9.382436973452569,2.4875315460562706,-0.4848431506178531,0.7403173231900892,-0.14882732496074624,0.44125707657627766
1.5581503857672214,-9.431540721058846,2.4084861074388026,-0.2835142626435498,0.6299333603445564,-0.41623780336559496,0.5912272959294791
1.479105093330145,-9.392018221020699,2.380940020680428,-0.04059533455346535,0.4271372016429654,-0.6226180277130462,0.6544101323725248
1.4168269841372967,-9.348902606964112,2.404893139600754,0.20829177277461225,0.16161075525130203,-0.7376915349147184,0.6215365640866833
1.421617607921362,-9.368065102100372,2.42884625852108,0.4265937847625892,-0.12763694055729377,-0.744468457954429,0.4974869539174451
1.409641048461199,-9.39800635457039,2.4312415704131127,0.5822558881883194,-0.3981465319138715,-0.6420120467681426,0.3004628955454702
1.4323965114355088,-9.380041369199754,2.4372298501431944,0.6524897671049119,-0.6102574930196895,-0.44533654073135565,0.05931493510180253
1.437187135219574,-9.359681364297867,2.5162752887606623,0.6251707073166672,-0.734455406212362,-0.17656278599328812,-0.1963731794337019
1.4192222960293295,-9.371657631397248,2.5689721503853797,0.505731701662264,-0.7467177507476439,0.11254047598217566,-0.41711232050597086
1.3964668330550194,-9.399203864336014,2.5450190314650536,0.3120951618452104,-0.6494429040574117,0.38516819056552176,-0.5765986379612505
1.4455707268416882,-9.444715082645416,2.3605798695981504,0.07265652651792556,-0.45701083136045223,0.6012368744991645,-0.6514417471394156
1.475512125492096,-9.52016696870327,2.23722130715847,-0.17751392860488366,-0.1975417748589316,0.7291393336860137,-0.6307312299298009
1.4695238457620146,-9.463877577781679,2.2384189631044866,-0.40172568459394686,0.0909345012205074,0.7500360700667484,-0.5174874727219297
1.4383847911655903,-9.400401374101639,2.3162665995955467,-0.5670165561536272,0.3660677167034409,0.6608213947753095,-0.3283317469304855
1.4335941673815251,-9.39800635457039,2.401300171762705,-0.6499121936337583,0.5918430227617006,0.46917439598409516,-0.0849197452151668
1.4515590065717698,-9.400401374101639,2.4468110977113247,-0.6344726778598702,0.7246363273652559,0.2119521680058638,0.16559858873050007
1.4671285338699818,-9.402796978354454,2.4276486025750637,-0.5258763449839869,0.7510786081280159,-0.0763638022079334,0.3917953086895155
1.4671285338699818,-9.461481973528862,2.443218129873276,-0.3400395181086206,0.6672729188086594,-0.35354780802806707,0.5604675953055434
1.4623379100859166,-9.474656335115434,2.4743571844697,-0.1042987166773781,0.48547746988199625,-0.5788116962539123,0.646846522921857
1.440780103057623,-9.431540721058846,2.4887290558218957,0.14677290262962553,0.23239103886940451,-0.7190890138044633,0.6382500374716774
1.4491636946797373,-9.449505706429482,2.4336368823051453,0.37627423258791937,-0.05476907706078158,-0.7537853211743383,0.5359344546401008
1.475512125492096,-9.558491958975793,2.4108814193308357,0.5538080389308917,-0.34009230472448315,-0.6747678584876201,0.34974593269220483
1.475512125492096,-9.617177538871765,2.3929165801405907,0.6450902801556,-0.5685973151485526,-0.49714553216854646,0.11576676336271846
1.475512125492096,-9.594421929717065,2.444415785819292,0.6416745973379567,-0.7135908816609703,-0.24648653706327314,-0.1352262984335737
1.4455707268416882,-9.526155686974526,2.536635293662548,0.5441202503210858,-0.7537258838358203,0.04035574929393139,-0.36633571860433684
1.4156293281912804,-9.477051354646683,2.595320581197739,0.3666913743813762,-0.6832036257542984,0.3212692383853228,-0.543650915733426
1.4228152638673783,-9.495016340017319,2.601308714747429,0.13548927990290097,-0.5124451325571537,0.5549595743577267,-0.6411415693733835
1.456349630355835,-9.459086953997613,2.566576838493347,-0.12169692445842703,-0.26008244879838727,0.7096271982948775,-0.6434098366084847
1.4503613506257536,-9.441121968626977,2.4408228179812435,-0.35506907206480365,0.025334816498128673,0.7554985902349372,-0.5500054375086377
1.468326189815998,-9.480644468665124,2.3498009660840036,-0.5363170518210862,0.3070349999130788,0.6905658262650737,-0.37578234172077596
1.4838957171142102,-9.497411944270134,2.3006970722973348,-0.6388543751880448,0.5437229793157977,0.5242454929869205,-0.14627738085550432
1.4731168136000634,-9.457888859510422,2.331836126893759,-0.647576214413951,0.7005535976759457,0.28088098830823516,0.10476437235804358
1.4611402541399003,-9.389622616767884,2.3941142360866072,-0.5612230346752581,0.7544109286904929,-0.0037323730371335833,0.34040993730170926
1.4970699325203896,-9.396808844804765,2.40609079554677,-0.39247246738698977,0.6974067539076682,-0.287785702759412,0.5260879881107425
1.5090464919805529,-9.421959473490716,2.4300439144670967,-0.1601698554182085,0.5330624006237078,-0.5345011375452071,0.6360020663641585
1.4898839968442918,-9.381238878965378,2.528251848220825,0.09066147979164961,0.29291766484159826,-0.6962473893982449,0.6490141065199293
1.468326189815998,-9.348902606964112,2.528251848220825,0.328126723811224,0.00975942783909886,-0.755710352509403,0.5666916884861466
1.4982675884664058,-9.366867007613182,2.4575900012254714,0.5173624837189704,-0.27472010696853005,-0.7042161339572867,0.4011789624863078
1.5389878906309606,-9.390820126533509,2.3953118920326233,0.6306921784549512,-0.5188570573246761,-0.5493512701622015,0.17671421015668662
1.5102441479265691,-9.358483854532242,2.3462079982459545,0.6513608217650668,-0.6868670708912502,-0.313844209712635,-0.0737869827589048
1.4838957171142102,-9.386029502749443,2.352196277976036,0.5762923480933714,-0.7540609994985362,-0.03221970864269623,-0.3134342497865809
1.4647332219779492,-9.453098235726356,2.336626750677824,0.4117140196893231,-0.708188001294142,0.26075497415179466,-0.5108504323863932
1.4204199519753458,-9.453098235726356,2.4456134417653086,0.1897400932176919,-0.5578324247391909,0.5084946199912602,-0.6278972084467969
1.3856879295408726,-9.346507002711297,2.5653790363669398,-0.06008590000025473,-0.32543367078317853,0.6814771876164487,-0.6527414904080487
1.444373070895672,-9.347704512476922,2.5833440217375756,-0.30105608299552195,-0.045274376264421996,0.754243602214167,-0.5817491334452147
1.5078488360345363,-9.39800635457039,2.5833440217375756,-0.4978075587067417,0.24146121563565687,0.7161863393803137,-0.4253953962176961
1.5581503857672214,-9.39800635457039,2.566576838493347,-0.6215031875760312,0.492749433310387,0.5729561570441585,-0.20652609014435602
1.5737199130654336,-9.38842510700226,2.5078915509581567,-0.6534161100834364,0.6748511328613735,0.33946535662452076,0.048852914047561216
1.590487096309662,-9.442319478392601,2.425253290683031,-0.5875284279709014,0.7525486611321534,0.060669617971018476,0.2912044924267058
1.5749175690114499,-9.516574439406396,2.3605798695981504,-0.43528393167433016,0.7197841448279269,-0.22708988323501958,0.4907839327166001
1.5306042990088464,-9.563282582759857,2.390521268248558,-0.21915618039649648,0.5812749387164307,-0.4815148513033762,0.6182503232417397
1.468326189815998,-9.560887563228608,2.480345610380173,0.029099836445617543,0.3572974143635725,-0.6652150635880608,0.6549661643042913
1.4108387044072153,-9.496213849782944,2.57496028393507,0.2729997120350277,0.08082760366724147,-0.7511365041884789,0.5955938278640189
1.4144316722452641,-9.42076196372509,2.66957524985075,0.47679257827676685,-0.20743243585442545,-0.7267252273073391,0.4488998394417056
1.444373070895672,-9.384831992983818,2.614483076334,0.6127385004229398,-0.47066483694153416,-0.5915104250380018,0.23052452892828684
1.5437785144150258,-9.461481973528862,2.489926857948303,0.6546567184281059,-0.6581325633422731,-0.37146989089157256,-0.017211340635632427
1.5940800641477109,-9.481841978430749,2.4719618725776673,0.6004923555274834,-0.7490671839659016,-0.09696445570820683,-0.26249796034952333
1.5581503857672214,-9.432738230824471,2.4456134417653086,0.45804858369324314,-0.7301646496787297,0.19183114238715435,-0.4693100170959397
1.5353949227929116,-9.433935740590096,2.3953118920326233,0.2483006663781456,-0.6041460869335924,0.45246418098251046,-0.607149445891885
1.5222207073867322,-9.50459758758545,2.371358773112297,0.0020669735286487564,-0.3894021978711257,0.646703579557155,-0.6558476470198935
1.5090464919805529,-9.518969458937645,2.371358773112297,-0.2444612983956449,-0.11749233325003522,0.745985628415605,-0.6082266579257711
1.4994652444124223,-9.509388211369515,2.377347052842379,-0.4594608847072426,0.17839884772539968,0.7341572052265287,-0.466993302487584
1.4994652444124223,-9.515376344919206,2.4180673550069334,-0.6014205807737093,0.44121602136017596,0.6133456820426775,-0.25967052554441705
1.4779074373841286,-9.49142322599888,2.492322169840336,-0.655153678065479,0.6392221913152663,0.40244754307130015,-0.014304660892804215
1.440780103057623,-9.472260730862619,2.566576838493347,-0.6127551169328782,0.74340229878605,0.1324768507241179,0.23309670279609493
1.4108387044072153,-9.441121968626977,2.555797788798809,-0.4804031022695082,0.7385292157540438,-0.1569255463593077,0.4462755087469872
1.440780103057623,-9.462679483294487,2.500705615282059,-0.2775444679281599,0.6253412945892354,-0.42324045191736537,0.5939569458005505
1.4707215017080308,-9.449505706429482,2.401300171762705,-0.033830098538999945,0.4204516377418819,-0.6274969527928801,0.6544642992468427
1.487488684952259,-9.447110102176667,2.367765805274248,0.22072313737488383,0.14706894763052658,-0.741096556574143,0.616788387621059
1.475512125492096,-9.467470107078553,2.4312415704131127,0.43675654571065403,-0.14223725912858937,-0.741963198284755,0.48836758111645906
1.4240129198133946,-9.474656335115434,2.504298729300499,0.5886327662485883,-0.41073581842654155,-0.633812014397655,0.2882531601998505
1.38329261764884,-9.415971339941025,2.556995590925217,0.6540629903230984,-0.6188670434171668,-0.43255183361872845,0.04587045339624128
1.3952691771090031,-9.381238878965378,2.556995590925217,0.6234899061051881,-0.7360802172175194,-0.16784923993606113,-0.20315728748641973
1.4479660387337208,-9.384831992983818,2.5162752887606623,0.5014088061667188,-0.7452673775048896,0.1214881740529533,-0.4223817807277318
1.4611402541399003,-9.354890740513802,2.493519679605961,0.3002635830733132,-0.641488014398027,0.3988947264505022,-0.5824241626801134
1.479105093330145,-9.356088250279427,2.479147808253765,0.05906521264474624,-0.44460926273158274,0.6108947508025621,-0.6524120688570874
1.4898839968442918,-9.408785111904145,2.4755549865961077,-0.190799774421809,-0.18243228059936284,0.7332787578390595,-0.6265909130987363
1.4838957171142102,-9.41716884970665,2.4971127936244013,-0.41260325237486245,0.10655841803067435,0.74803512071682,-0.5087703979701044
1.4898839968442918,-9.406390092372895,2.4755549865961077,-0.5738320257351155,0.3799350795963374,0.652973522060402,-0.31621467553055205
1.4958722765743733,-9.432738230824471,2.465973739027977,-0.6508181105743603,0.5974966893409555,0.46202701405580365,-0.07723037911143261
1.494674620628357,-9.466272597312928,2.4719618725776673,-0.6322664188083263,0.727305908183188,0.20324877436947267,0.17307578480662547
1.4862910290062428,-9.489028206467628,2.479147808253765,-0.5171090416892997,0.7495359258363576,-0.0922773415266811,0.4028387110551523
1.479105093330145,-9.49142322599888,2.4887290558218957,-0.32779849290350505,0.6597637678001792,-0.3675448974643208,0.5676007990623726
1.475512125492096,-9.469865711331368,2.51986811041832,-0.09037837542818902,0.4730789743424454,-0.5888246399919937,0.6490867250440114
1.475512125492096,-9.473458825349809,2.536635293662548,0.16030533890314597,0.2169314064525715,-0.7236212021676217,0.6353072634459191
1.479105093330145,-9.431540721058846,2.5066940411925316,0.3874474105555597,-0.0709923121844598,-0.7521747825854234,0.5282780443166903
1.5114418038725854,-9.405191997885705,2.505496239066124,0.5577802068059847,-0.3485071960875995,-0.6703133590309691,0.3436625901596673
1.5150347717106343,-9.399203864336014,2.485136234164238,0.6461989337209684,-0.5748860883756578,-0.4900574128781596,0.10852030009718792
1.5282089871168136,-9.40758760213852,2.444415785819292,0.6382582932332722,-0.7190520930845669,-0.23130584301773452,-0.14862047481928195
1.5461738263070584,-9.432738230824471,2.444415785819292,0.535644484487087,-0.7530697168649393,0.05612625316234038,-0.3779164345268408
1.5353949227929116,-9.442319478392601,2.4635784271359444,0.35432509385107763,-0.6764766726120658,0.33533037463362114,-0.5517124061748189
1.5198253954946996,-9.454296330213547,2.5150774866342545,0.12094242116825452,-0.5004596110465823,0.5653245444894728,-0.6444542403234184
1.4767097814381123,-9.459086953997613,2.633645571470261,-0.13013419214006477,-0.2508209886926949,0.7122255402321868,-0.6425641629504726
1.4323965114355088,-9.429145116806032,2.6647846260666848,-0.3620011510058488,0.03561536969322296,0.754462063644675,-0.5463274719736085
1.4587449422478675,-9.465075087547303,2.5737627741694453,-0.5440883670635953,0.3230303844229818,0.6830543322534343,-0.3647684179797176
1.4850933730602265,-9.471063221096992,2.4683690509200096,-0.641299075760653,0.556016689502716,0.5117120797319549,-0.13316036902686224
1.494674620628357,-9.474656335115434,2.35099862203002,-0.6443339486845215,0.7074451337383213,0.2653841931405592,0.11801006462889357
1.5042558681964875,-9.477051354646683,2.3498009660840036,-0.5527893466051299,0.7550984245233435,-0.019953443319422007,0.3519263668183113
1.4647332219779492,-9.378843859434129,2.473159674704075,-0.38011848367398937,0.6918567317281643,-0.30240475686609,0.5342242639159801
1.4168269841372967,-9.315368240475655,2.5222634223103526,-0.15158979683232557,0.5270282060882865,-0.5405060084436052,0.6380556859084152
1.4551519744098187,-9.347704512476922,2.4971127936244013,0.09919499674122645,0.2848468144458892,-0.6992142844609954,0.6481682106731519
1.487488684952259,-9.427947607040405,2.480345610380173,0.340629044107888,-0.006077579274593433,-0.7553005283097224,0.5598714399532823
1.5006629003584386,-9.42675009727478,2.4755549865961077,0.5260307266958262,-0.28969744256240526,-0.6978017190121906,0.39043543293135524
1.5114418038725854,-9.402796978354454,2.4719618725776673,0.6342331910879764,-0.5307320476700103,-0.537833047186325,0.1637295521664695
1.5341972668468953,-9.438726364374162,2.4504040655493737,0.6493668459057318,-0.6938293472432151,-0.2989373758412739,-0.08694815505592278
1.5653363214433194,-9.49142322599888,2.4336368823051453,0.569174276456111,-0.7551362338741515,-0.01611473746344392,-0.32488494355311337
1.5389878906309606,-9.49142322599888,2.42884625852108,0.4054410253730222,-0.7056221529772296,0.2690834465518508,-0.5150815964136447
1.4922793087363244,-9.490225716233255,2.4372298501431944,0.18217064714119385,-0.5525346481419706,0.5148376303824063,-0.6296519135721071
1.4467683827877045,-9.495016340017319,2.4719618725776673,-0.07394017951249669,-0.31207972457041006,0.6879331401657728,-0.6510661180151951
1.4228152638673783,-9.475853844881058,2.561786214709282,-0.313284034468205,-0.030529506014443385,0.7549034831932188,-0.5753623154783293
1.4144316722452641,-9.441121968626977,2.6108899623155595,-0.5066580281349298,0.25551403098324416,0.7110820559994881,-0.41517771150756544
1.437187135219574,-9.481841978430749,2.5653790363669398,-0.6256275311038932,0.504018794367639,0.5629435302225041,-0.19403563855555858
1.4862910290062428,-9.53094631075859,2.4767524963617324,-0.6528083578595231,0.6784839522592562,0.33228280613685235,0.0555779738856255
1.4970699325203896,-9.554899429678917,2.4072884514927866,-0.5842006755923308,0.7534209429678276,0.05288160550103236,0.2971026575690075
1.4719191576540471,-9.487830696702003,2.400102515816689,-0.42986318127189993,0.7178236189022607,-0.234250886365488,0.4950489064424314
1.4659308779239655,-9.39800635457039,2.4456134417653086,-0.20658066574638764,0.5724193968330328,-0.49231448068579325,0.62232380219317
1.4767097814381123,-9.414773245453835,2.453997179567814,0.042349031505982876,0.3451054863841826,-0.6715301029198596,0.6543363689040101
1.4659308779239655,-9.433935740590096,2.481543120145798,0.28504979719132845,0.0671346339163014,-0.7521674065659882,0.5903251193621207
1.4539543184638024,-9.401599468588829,2.4635784271359444,0.4859535919923191,-0.22068211108294256,-0.7224084031506014,0.4396300846565626
1.440780103057623,-9.387227597236635,2.4587878033518793,0.615537717289594,-0.4760795047843403,-0.586600376836856,0.22441395146708595
1.4240129198133946,-9.39800635457039,2.486333743929863,0.6547877848370007,-0.661578840101533,-0.3646990690174355,-0.023685105361382394
1.4108387044072153,-9.41118071615696,2.5294493579864503,0.595395341581787,-0.750804562369356,-0.0823587423405215,-0.27388671729047914
1.4036527687311173,-9.48304007291794,2.504298729300499,0.4490011354737795,-0.7264505657645018,0.2059866944336193,-0.4777416012448598
1.444373070895672,-9.49142322599888,2.4492064096033572,0.23671530032093277,-0.5954722127060946,0.46408974820403526,-0.6115549166679911
1.4288035435974598,-9.471063221096992,2.4120790752768517,-0.010350343725539978,-0.377089647772473,0.6541166276636129,-0.6556124658222859
1.3940715211629868,-9.40998262166977,2.3989048598706724,-0.25589045908022157,-0.10337421308448518,0.7481661446484453,-0.6033914691332307
1.359339498728514,-9.364471988081933,2.4384275060892104,-0.46389881914862685,0.18553905644370025,0.7323810041870977,-0.4625918382682398
1.3701184022426607,-9.369262611865997,2.4456134417653086,-0.6037981618571859,0.4471893092814674,0.6090935578033978,-0.2538789854333092
1.4108387044072153,-9.421959473490716,2.4516017214953902,-0.6550556288874348,0.6468402612594542,0.39050843522384454,-0.0017208996812353046
1.4323965114355088,-9.376448255181312,2.5450190314650536,-0.60792331060804,0.7458767070743362,0.11857752145632097,0.24502358594343762
1.4311988554894925,-9.368065102100372,2.5462165412306788,-0.4715328843288164,0.7353937077700514,-0.17074610404038967,0.4557396203138275
1.4551519744098187,-9.435133835077286,2.4336368823051453,-0.2659029396483362,0.616972275028862,-0.43497190401205943,0.5995333862698619
1.5006629003584386,-9.51417883515358,2.377347052842379,-0.0212419817807794,0.40797120802550524,-0.6353036238401014,0.6553606466426481
1.4707215017080308,-9.515376344919206,2.3641728374361994,0.22651656108272247,0.13908001864178,-0.7424020215827043,0.6149684823791973
1.4395824471116068,-9.421959473490716,2.40609079554677,0.4410577359792135,-0.15026306913093795,-0.7404769563971775,0.48433765147158825
1.4276058876514435,-9.396808844804765,2.4312415704131127,0.5934273156696249,-0.42329342258564995,-0.6260175269430656,0.2770717513081366
1.440780103057623,-9.41118071615696,2.4036954836547375,0.6542312445719438,-0.6273773853818986,-0.4210326634826687,0.03332553402284671
1.475512125492096,-9.432738230824471,2.4072884514927866,0.6189401884314908,-0.7394122646826464,-0.15419443296766097,-0.21542196457894464
1.5006629003584386,-9.448307611942292,2.4300439144670967,0.49273005490675004,-0.7428486997936522,0.13524799148475758,-0.4325515957730481
1.5006629003584386,-9.447110102176667,2.4456134417653086,0.29409632089539794,-0.6371726990349682,0.40485388044377746,-0.5861839652616749
1.5054535241425038,-9.462679483294487,2.444415785819292,0.05226040206262374,-0.4378881708299266,0.614959829799982,-0.653717988092611
1.4994652444124223,-9.547713201642036,2.4336368823051453,-0.20305833051628605,-0.16753783682743448,0.7363552389902067,-0.6232811160710696
1.475512125492096,-9.5297482162714,2.443218129873276,-0.4224628476534202,0.12180514542670576,0.7454845849618381,-0.5009404979480281
1.4311988554894925,-9.481841978430749,2.465973739027977,-0.5797904727324483,0.39325410110556497,0.6450939175664457,-0.3050377963648341
1.444373070895672,-9.474656335115434,2.4767524963617324,-0.6519675377050441,0.6068885440162904,0.4499755586107024,-0.06439426662052618
1.4731168136000634,-9.495016340017319,2.4599853131175045,-0.6284151065914922,0.7314122306004732,0.18878218497495267,0.18571992184934458
1.5126394598186017,-9.484237582683564,2.4324392263591292,-0.5126151954633164,0.7485099908330075,-0.10006095305147526,0.4085905783026665
1.4982675884664058,-9.429145116806032,2.397707203924656,-0.3215002185221843,0.6557327642888884,-0.3742260413328177,0.5714954254555404
1.475512125492096,-9.383634483218193,2.404893139600754,-0.07703573384548082,0.46124018003902817,-0.5977543095585454,0.6511626351631672
1.4192222960293295,-9.339321359395981,2.448008753657341,0.17334932134989595,0.20236854309060687,-0.7274823208143992,0.632270874275742
1.402455112785101,-9.296205745339394,2.504298729300499,0.398266333540007,-0.08630941554181691,-0.7503593343173699,0.5204762067186388
1.4491636946797373,-9.342913888692856,2.5102868628501893,0.5646346659385998,-0.36233400348183825,-0.662988228098184,0.33218725644500513
1.5174300836026668,-9.394413240551948,2.480345610380173,0.6480447123589741,-0.5850731197324147,-0.4782014540592081,0.09513603253138758
1.564138665497303,-9.432738230824471,2.4024978277087214,0.6362822536888965,-0.7218267787201306,-0.2231694866623997,-0.15590502040004825
1.5737199130654336,-9.456691349744798,2.3689634612202646,0.5310899048965353,-0.7525289696849264,0.06459564751776724,-0.3840196154152708
1.586894128471613,-9.42315698325634,2.358184557706118,0.34266016970407165,-0.6695553275992348,0.34902305514194215,-0.5589835224416216
1.6036613117158414,-9.405191997885705,2.377347052842379,0.1075735537277008,-0.48876035126193756,0.5752217759351212,-0.6470403063664165
1.5928824082016946,-9.38842510700226,2.4516017214953902,-0.1432933831144984,-0.2361537555294287,0.7169315933908699,-0.6400839792581726
1.5725222571194173,-9.350100116729736,2.52346122443676,-0.3731236450329339,0.0511806419953759,0.753346620476869,-0.5390993941921643
1.5665339773893356,-9.365669497847557,2.5677743482589723,-0.5481407185729084,0.33096466310163597,0.6790862256150032,-0.35895130951197995
1.5880917844176292,-9.39800635457039,2.5869368433952333,-0.6426835763218616,0.5620608423396067,0.5051153386330328,-0.12611076445835323
1.5952777200937271,-9.50100447356701,2.505496239066124,-0.6415483182398547,0.7130276368370884,0.25052144447442626,0.1313253605690024
1.6156378711760044,-9.545318182110787,2.4300439144670967,-0.5451532143487274,0.7545951198740017,-0.035692387227606925,0.3634834679068446
1.5761152249574661,-9.550108805894853,2.409683763384819,-0.3686664466195095,0.6853302835642558,-0.3167259449856757,0.5423026178616619
1.5114418038725854,-9.509388211369515,2.480345610380173,-0.1380183413593191,0.5153601225109187,-0.5512636959339244,0.6414539883103255
1.4838957171142102,-9.481841978430749,2.517472798526287,0.11285280935301287,0.26974471815446877,-0.7047721589933957,0.6463731386410534
1.5306042990088464,-9.471063221096992,2.536635293662548,0.34719581263863236,-0.015432843385839818,-0.7546941227133938,0.5564653413943125
1.5078488360345363,-9.454296330213547,2.562983724474907,0.530561315904841,-0.2983332804749601,-0.6938041291286833,0.3848867031093196
1.5078488360345363,-9.389622616767884,2.5845415315032008,0.637418733165201,-0.5422933580439251,-0.5261818652816507,0.1508241263201492
1.5054535241425038,-9.374053235650063,2.5785533979535105,0.6472398209916608,-0.700229841682291,-0.28407413501418366,-0.10030288508422942
1.5162324276566506,-9.406390092372895,2.5019034174084664,0.5620360982202615,-0.7554826156138127,-0.0003397772095723403,-0.33669173787621315
1.521023051440716,-9.427947607040405,2.3929165801405907,0.39427086734333977,-0.6999768618924077,0.2834659816517262,-0.5236696604022529
1.5222207073867322,-9.435133835077286,2.4084861074388026,0.16861259716375193,-0.5417559671948304,0.5257306626104776,-0.6337803519182621
1.459942598193884,-9.39800635457039,2.4180673550069334,-0.08177354909846347,-0.30404817976269843,0.6908776741526909,-0.6508116704609708
1.4467683827877045,-9.424354493021966,2.4456134417653086,-0.32012979088479276,-0.02168454290275556,0.754653951699414,-0.5723146955754465
1.4347918233275414,-9.448307611942292,2.4683690509200096,-0.5152516818702283,0.2703677639151916,0.7052461906080173,-0.40502442790315807
1.4300011995434763,-9.431540721058846,2.462380625009537,-0.6294884230519638,0.5157762884580206,0.5520910747742335,-0.1814237874774201
1.4491636946797373,-9.4195638692379,2.481543120145798,-0.6513883876728023,0.685499588436756,0.31788118742578236,0.06881157852309251
1.4611402541399003,-9.39800635457039,2.4839384320378306,-0.5777313757237278,0.7546015444479643,0.037052564630654955,0.3089175846004998
1.4719191576540471,-9.425552587509156,2.4695665606856347,-0.41930550074020345,0.7129779413357057,-0.2492469086521639,0.5037075845617637
1.4527566625177861,-9.425552587509156,2.4839384320378306,-0.19936628356584513,0.5667046228041592,-0.4990107346243752,0.6245696455954132
1.4419777590036393,-9.43633134484291,2.370161117166281,0.04982575695887209,0.33733817404833033,-0.6755767954511313,0.6536943809772228
1.4623379100859166,-9.479446958899498,2.2994994163513183,0.29722768254314214,0.051555533284710596,-0.7535522031256506,0.5840863025976902
1.4575472863018513,-9.473458825349809,2.312673631757498,0.49496696752440317,-0.23564799774184683,-0.7177491980316253,0.4293178437299266
1.4491636946797373,-9.415971339941025,2.3569869017601013,0.6200551425721732,-0.4882597950897558,-0.5765399369427257,0.21150814116432867
1.4623379100859166,-9.372855725884438,2.4408228179812435,0.6541424062509225,-0.6691575321336338,-0.35061313141646266,-0.03736765461492488
1.4910816527903081,-9.371657631397248,2.51986811041832,0.59225373257441,-0.7517127838060959,-0.07320216149440618,-0.2807220163555325
1.5270113311707973,-9.400401374101639,2.561786214709282,0.4433978475402503,-0.7238799892756085,0.2149915833253844,-0.4828816925731006
1.5725222571194173,-9.448307611942292,2.52346122443676,0.22362609498073485,-0.5854640679104977,0.4770007791482717,-0.6161927064817477
1.602463655769825,-9.49142322599888,2.4599853131175045,-0.02442564855014112,-0.3630609869408614,0.6622495758968071,-0.654992829486653
1.5976730319857597,-9.50100447356701,2.4036954836547375,-0.26897144063802797,-0.08733545161322977,0.7502930689579618,-0.597567731463355
1.5773128809034824,-9.53932946383953,2.39650954797864,-0.4740130005885151,0.20127396279666346,0.7281665799879194,-0.45229846225904513
1.525813675224781,-9.53932946383953,2.4599853131175045,-0.609404613052685,0.460326425283781,0.5990353123883095,-0.24058739428200127
1.4838957171142102,-9.534538840055466,2.5486118531227113,-0.6552881052745133,0.6517374565579782,0.38182989056059274,0.00645921663684521
1.4707215017080308,-9.563282582759857,2.6072971406579017,-0.6049358189578162,0.7473456190489148,0.1085468371032843,0.25247725597586745
1.4838957171142102,-9.58603819191456,2.604901828765869,-0.4613828281256412,0.7315186731689853,-0.18736192260069157,0.4657272019919439
1.5222207073867322,-9.576456944346429,2.6504127547144893,-0.2525828831559598,0.6071764953737061,-0.44882250770654925,0.6050594575563059
1.5389878906309606,-9.471063221096992,2.6120877644419673,-0.006686519855086267,0.39376899739405524,-0.6442824028885329,0.6555924438793406
1.5557550738751889,-9.435133835077286,2.4911243677139283,0.2402658982113033,0.12265906108273981,-0.7451975570641018,0.6098423188306227
1.5737199130654336,-9.448307611942292,2.4599853131175045,0.45199232785022664,-0.16643641701847234,-0.736778250988274,0.4745099193117531
1.5497667941451074,-9.437528854608535,2.4755549865961077,0.5973112030503562,-0.4311431379642726,-0.6202700779195867,0.2694437821410734
1.5234183633327485,-9.399203864336014,2.467171248793602,0.654881301131621,-0.6326071048956234,-0.4127059297191983,0.02474970380317862
1.5126394598186017,-9.415971339941025,2.4468110977113247,0.6141001578167641,-0.7425074572521689,-0.13776062420027335,-0.2293156830971116
1.4803027492761613,-9.430343211293222,2.4635784271359444,0.4830344007360341,-0.7395407536114289,0.1516628260997707,-0.44357144704416107
1.444373070895672,-9.370460121631623,2.51986811041832,0.28105932278288837,-0.6279441670530453,0.41881572908387016,-0.5926931459134883
1.418024640083313,-9.275845155715944,2.5402284076809885,0.03789806310912972,-0.42416586855783955,0.6243937520875354,-0.654812564874254
1.440780103057623,-9.281833873987198,2.4971127936244013,-0.2108116282124977,-0.15813784175340442,0.7383250535339099,-0.6208276699214685
1.479105093330145,-9.3093795222044,2.4719618725776673,-0.4285881783373185,0.13112072542698436,0.7438648284131393,-0.49576672518725107
1.5054535241425038,-9.365669497847557,2.453997179567814,-0.5862068596198444,0.4070124669416244,0.6365318365989339,-0.29245442462838783
1.5006629003584386,-9.370460121631623,2.4420204739272595,-0.6532602414669518,0.6163085797659863,0.4369015763546876,-0.0503170349301481
1.50665118008852,-9.352495136260988,2.3941142360866072,-0.6244437009510855,0.7351210608621153,0.17319369069275017,0.19917589142186198
1.5222207073867322,-9.347704512476922,2.385730644464493,-0.5039598408194388,0.7460764142918475,-0.11595987672230466,0.4194612853043932
1.513837115764618,-9.321356374025346,2.443218129873276,-0.30948859788911876,0.6475241850519751,-0.3881351393840035,0.5781698289644343
1.5425808584690095,-9.269857022166253,2.492322169840336,-0.06959994279212525,0.4539246651705547,-0.6032753113740116,0.6520484222814454
1.5473714822530746,-9.286624497771264,2.5414259174466136,0.1805415131358449,0.19364049793191593,-0.7298790126919986,0.6302259487097087
1.5389878906309606,-9.31896076977253,2.5725649720430375,0.4089367033484264,-0.10197350237747013,-0.7484689844472876,0.5120218323351446
1.5306042990088464,-9.401599468588829,2.52346122443676,0.5714035725809427,-0.3758922580178186,-0.6553567757560781,0.32048473298208546
1.5270113311707973,-9.473458825349809,2.4695665606856347,0.6499790398407271,-0.5946623544944708,-0.46604337206542706,0.08189937282241326
1.4922793087363244,-9.542922577857972,2.4276486025750637,0.6330940547859215,-0.7261850632518271,-0.20833432096687038,-0.1686534387788565
1.459942598193884,-9.518969458937645,2.4276486025750637,0.523277101509178,-0.7511289085388771,0.08001294695522465,-0.39444184122997006
1.4503613506257536,-9.506993191838266,2.425253290683031,0.3366797906036911,-0.6657892547855664,0.3565949543667591,-0.5623267958503346
1.4671285338699818,-9.477051354646683,2.4492064096033572,0.10069273480339264,-0.4827362927665655,0.5807597080414422,-0.6477227850858924
1.482698061168194,-9.425552587509156,2.4755549865961077,-0.156107843126765,-0.22224649816071002,0.7217645654599171,-0.6366260656115708
1.5042558681964875,-9.40399448812008,2.5078915509581567,-0.38399460978494,0.06555125128695592,0.7523398412429663,-0.531258822410823
1.5174300836026668,-9.424354493021966,2.518670600652695,-0.5554836953911297,0.34373420263192994,0.6725124674944538,-0.3478672780819248
1.5222207073867322,-9.471063221096992,2.480345610380173,-0.6453908726316339,0.5715004841108325,0.49397129160607867,-0.11335863996133946
1.5318019549548627,-9.534538840055466,2.434834538251162,-0.6405054205702984,0.7153684357132255,0.24293565275546936,0.1377790841367155
1.5126394598186017,-9.544120087623597,2.3929165801405907,-0.5415375407413252,0.7542355303917045,-0.04379680521527188,0.3687108576045969
1.4838957171142102,-9.52016696870327,2.380940020680428,-0.36304549070397724,0.6823520789643601,-0.32409898060503056,0.5454846127832609
