5.690063545703889,-5.778689793348312,5.778689793348312,0.6348040618702836,-0.7280815150525375,-0.1897949999118632,-0.17578102423255604
5.688866035938263,-5.886479120850563,5.765516016483307,0.5227969222955026,-0.7450644876064125,0.0976124170044589,-0.40253459900074645
5.662517312765122,-5.937978472709656,5.705632926821709,0.32867055903512654,-0.6493233993338741,0.3767875704870634,-0.5730496605247192
5.599041693806648,-5.928397225141525,5.564309817552567,0.09009876091355949,-0.459242730779583,0.5935890667440792,-0.6546986691217921
5.564309817552567,-5.935582868456841,5.466101737618446,-0.16171538663374377,-0.20177101881275952,0.7233003899522551,-0.6402914458182893
5.5702979511022574,-5.9319897544384,5.575088574886323,-0.3897783492012017,0.08535758479896798,0.7467378442628542,-0.5321367429119496
5.559519193768502,-5.82899163544178,5.74036480307579,-0.5607168109142265,0.35997191268726375,0.6605114973015735,-0.34603676389494503
5.594251070022583,-5.72120230793953,5.769108545780182,-0.6494100613429162,0.5817404320889711,0.4774344507273046,-0.10909164568491875
5.6732960700988775,-5.760725392699242,5.748748540878296,-0.6427712413379069,0.7181789248691771,0.22439403737310892,0.14391483305787112
5.700842303037644,-5.843363506793976,5.699644793272019,-0.5380618487063318,0.7488626123143742,-0.06853324066397194,0.38078528039895393
5.675691674351692,-5.8948628586530685,5.622994812726975,-0.3557276211228758,0.6675542745955827,-0.3447313983748919,0.5558681615400514
5.646947931647301,-5.91642037332058,5.534367980360985,-0.12115803077750294,0.4882968550037243,-0.5703421101775616,0.6493048516142441
5.599041693806648,-5.9260016208887105,5.476880494952202,0.131156014236861,0.23733868034390238,-0.7122445205394646,0.647438177514752
5.5966460895538335,-5.890072234869003,5.583472312688828,0.36420459911049163,-0.0484958532624783,-0.7494502346564403,0.5507517662037197
5.564309817552567,-5.8218054074048995,5.666110426783562,0.543827881251369,-0.3272001086511912,-0.6766369813204642,0.37330111168040375
5.622994812726975,-5.7571322786808015,5.687667941451073,0.6447962380942185,-0.5625767584311403,-0.4995162377361615,0.13501381577662655
5.667307936549187,-5.807433536052704,5.71281915485859,0.6479008261449567,-0.7090458343561113,-0.2520832146142857,-0.11803633835669587
5.688866035938263,-5.837375373244286,5.770306640267372,0.5558922303192092,-0.7514994161189608,0.03239788494774649,-0.3538118608731327
5.660122293233872,-5.873304759263992,5.704435417056084,0.38221746270155893,-0.683740906480508,0.3121365871083412,-0.5375676097009124
5.638564193844796,-5.91402535378933,5.579879198670388,0.15238714632156955,-0.5156871220504466,0.5460980086875254,-0.6423565323827692
5.6194016987085345,-5.945164116024971,5.494845480322838,-0.09981032223776876,-0.2719513113255593,0.6999063325522309,-0.65284876464338
5.615808584690094,-5.9104322397708895,5.536763584613801,-0.33732085590475946,0.011674591984330454,0.7508929187164463,-0.5676602581607911
5.602634807825089,-5.848154130578042,5.555926079750061,-0.5289111786247301,0.3000229627048364,0.6890567013876914,-0.39425886070997185
5.615808584690094,-5.773899169564247,5.679284788370133,-0.6379335717615103,0.5373201534453503,0.5260236424036985,-0.16621353240158585
5.639761703610421,-5.737969783544541,5.812224159836769,-0.6533401039192783,0.6957154898541823,0.28581944225130496,0.08622013812825136
5.664912917017937,-5.782282907366753,5.720004798173905,-0.5726503129140009,0.7521576875322351,0.0037297960340598123,0.3260621425851242
5.694854169487954,-5.886479120850563,5.591855465769768,-0.4077954214837235,0.6982825265807412,-0.27893346018250526,0.5179773470718037
5.663714822530746,-6.01702347278595,5.578681688904762,-0.1831610299058096,0.5418385707276977,-0.5207137315532911,0.6338140185949312
5.591855465769768,-5.949954739809036,5.577483594417572,0.06832043075327361,0.3058217165081417,-0.6860303872563928,0.6566336148984033
5.577483594417572,-5.81941038787365,5.600239203572274,0.31510573354969185,0.018002873132006155,-0.7508888776193167,0.5801294396173206
5.588262936472893,-5.7834804171323775,5.645750421881676,0.509759183974282,-0.2660408596630173,-0.7025471874410385,0.4192794828778569
5.640959798097611,-5.799050382971764,5.63377357006073,0.629586044421867,-0.5109618930191487,-0.5511736899999453,0.19684237349554343
5.702039812803268,-5.831386654973031,5.640959798097611,0.6570205552029278,-0.6809185601921587,-0.31891109877135093,-0.054494178653539276
5.670901050567627,-5.879292892813683,5.674494164586068,0.5880261025858701,-0.750988955449136,-0.03976073835618884,-0.29775824951872953
5.642157307863235,-5.842165997028351,5.760725392699242,0.4327973743485502,-0.7107695970123485,0.24529256040380262,-0.4973173760592439
5.606227337121964,-5.837375373244286,5.764317921996117,0.20827043474326923,-0.5617443435834344,0.499613056669517,-0.6256624585742764
5.632576060295105,-5.869711645245553,5.670901050567627,-0.042232471254937065,-0.3325966502523818,0.6739411163431349,-0.6583306603180235
5.639761703610421,-5.874502269029618,5.605029827356339,-0.2865662222901258,-0.05473794685273794,0.7493864753109326,-0.5943933613675124
5.632576060295105,-5.830189145207405,5.546344832181931,-0.4889230036505879,0.23114420021628923,0.714942441312775,-0.4431522997992771
5.625389832258225,-5.8265960311889655,5.491252366304398,-0.6194812047471132,0.4831230631106329,0.5756471742033341,-0.22686003104862054
5.643354817628861,-5.8182128781080245,5.534367980360985,-0.6591659755276523,0.6642314166369275,0.3518275305029676,0.022676654060117516
5.628982946276665,-5.824201011657715,5.640959798097611,-0.6021882235032239,0.7478468938939175,0.0762913889959127,0.26883822409085606
5.622994812726975,-5.800247892737389,5.754736674427987,-0.4523699178749577,0.7197918129026981,-0.21717252824007316,0.4796845801752082
5.63736668407917,-5.813422254323959,5.755934768915177,-0.23876919426081522,0.585338666199382,-0.47171248138967775,0.6146993188748158
5.660122293233872,-5.858932887911797,5.674494164586068,0.00997107185337439,0.36506983225482403,-0.6570855900936668,0.6594415232564499
5.6960516792535785,-5.8721072494983675,5.585867332220078,0.25729170248835187,0.09131805530309897,-0.7460431996710231,0.6073561861304516
5.6697035408020025,-5.91642037332058,5.504426727890968,0.46684461988517356,-0.1958989060530497,-0.725575330305118,0.46606883562849927
5.63377357006073,-5.91402535378933,5.468497341871262,0.6078381620225993,-0.45438439265695807,-0.5985912165169407,0.25642961608894677
5.605029827356339,-5.8876766306161885,5.496042990088463,0.6596630221438355,-0.6461737161589355,-0.3836909237893555,0.009246662267222788
5.584669822454453,-5.8110266500711445,5.552332965731621,0.6123442714923073,-0.7442413647596882,-0.10558866076635447,-0.24492921195471987
5.642157307863235,-5.763120412230492,5.691261055469513,0.475314234792525,-0.7292997914792883,0.18197852567069545,-0.45725486169813795
5.692458565235138,-5.808631630539894,5.7954572689533235,0.26854652850509414,-0.6073154365762568,0.4427979999338009,-0.6024787579480948
5.704435417056084,-5.8649210214614875,5.7954572689533235,0.022288154947167325,-0.39624166731319416,0.6386891642585358,-0.6592206995328986
5.684075412154198,-5.908036635518075,5.6577266889810565,-0.2273043121680122,-0.12704713785764818,0.7409237110661917,-0.6190507481716738
5.63736668407917,-6.0026516014337545,5.541554208397866,-0.4434597214552275,0.1608234353295701,0.734456304107072,-0.4879069946752433
5.603832317590713,-6.006244715452195,5.468497341871262,-0.5969447579896406,0.4308713736867357,0.6163249701000989,-0.27955383466714745
5.577483594417572,-5.909234730005265,5.476880494952202,-0.6585217094424082,0.6307060099657723,0.4091152832002808,-0.034405991310497736
5.589460446238518,-5.838572883009911,5.561914213299752,-0.6235873760029896,0.7378761244287112,0.1418292983303141,0.2157824358535737
5.611017960906029,-5.799050382971764,5.679284788370133,-0.4971451219318727,0.7367230140742891,-0.14632214770709023,0.4343682278470915
5.640959798097611,-5.787073531150818,5.73198164999485,-0.29766371805542846,0.6274836054814569,-0.4129762047849079,0.5891615144311988
5.678086693882943,-5.83497976899147,5.7727016597986225,-0.05445284438342687,0.42611953944285685,-0.6190207648262722,0.6574726751413011
5.668505446314812,-5.8984553879499435,5.782282907366753,0.19668592452693093,0.16221232662855697,-0.7341874815510541,0.6292619089985166
5.652936065196991,-5.946361625790597,5.6697035408020025,0.4235079821738109,-0.13230223757567264,-0.7405982503759448,0.5046299025103712
5.650541045665741,-5.993070353865623,5.578681688904762,0.5825399164167699,-0.400572568438278,-0.6367002133688991,0.307898849448812
5.5966460895538335,-5.960733497142792,5.5702979511022574,0.6560993121921062,-0.6100076965488258,-0.4393864821412026,0.0660592310265518
5.605029827356339,-5.868514135479927,5.578681688904762,0.6334110114006459,-0.7299477701877973,-0.17761098441819123,-0.18552919352025019
5.6349710798263555,-5.802642912268639,5.5810767084360124,0.5177597390844177,-0.7427996378824123,0.11020270708032096,-0.4099133004638442
5.649342951178551,-5.752341654896736,5.658924198746681,0.3261429640218936,-0.6466534679735143,0.3818252650778897,-0.5741772603691652
5.644552327394486,-5.752341654896736,5.664912917017937,0.08658006811077798,-0.4556547415849325,0.5974670068936759,-0.6541527527654483
5.6577266889810565,-5.800247892737389,5.672098560333252,-0.17160573572259988,-0.19109415975186939,0.7273743736176675,-0.63636547217785
5.652936065196991,-5.902048501968384,5.678086693882943,-0.398589964923833,0.09600843398663046,0.7461640764467558,-0.5245451281689809
5.667307936549187,-5.92001348733902,5.639761703610421,-0.5670485407362763,0.3690008761084458,0.6554139749471688,-0.3357481605668321
5.6349710798263555,-5.906839125752449,5.603832317590713,-0.6522686608114607,0.5877764339123634,0.4685066135291743,-0.09780598621717185
5.626587926745415,-5.918815977573395,5.53915860414505,-0.6417821135096462,0.7203785276911094,0.2128152875610785,0.15453203228126067
5.603832317590713,-5.905641615986824,5.561914213299752,-0.5371529476630259,0.7472326778722963,-0.07415673904792572,0.38420152783467354
5.583472312688828,-5.81581727385521,5.613413565158845,-0.35375142381883157,0.6644216829312516,-0.35013735575846405,0.55750120134348
5.642157307863235,-5.777492283582688,5.597844184041024,-0.11231721309189854,0.47894973059966367,-0.5792906344465863,0.6499341197723428
5.709226040840149,-5.848154130578042,5.582274218201637,0.1405107205333243,0.22639602026111544,-0.7172023528343884,0.6439117676467422
5.717609778642655,-5.882886006832123,5.602634807825089,0.3727287090335223,-0.05940952582359163,-0.7498685790558656,0.5433607750365838
5.693656659722328,-5.8601303976774215,5.611017960906029,0.5502212091115427,-0.3365149524613974,-0.6724606805606855,0.363057765257259
5.654133574962616,-5.857735378146172,5.63018045604229,0.6469219389723309,-0.5642325932872929,-0.49633506421874035,0.1295572829892432
5.625389832258225,-5.840967902541161,5.728388535976411,0.6487434622783492,-0.7091421612148282,-0.24725413765956317,-0.1229418836234757
5.599041693806648,-5.8265960311889655,5.664912917017937,0.5518126920280788,-0.7497530953467686,0.04498055444004429,-0.3624221277142583
5.640959798097611,-5.852944754362107,5.547542341947556,0.37508752894268466,-0.6780050984322373,0.3239156599683839,-0.5428600900405272
5.661319802999497,-5.918815977573395,5.569100441336632,0.14333486291493364,-0.5066811944564016,0.55535184308333,-0.6436719775175395
5.640959798097611,-5.9044441062212,5.652936065196991,-0.1093902951022493,-0.2609485663408589,0.7052513300392632,-0.6500462833829168
5.62179730296135,-5.800247892737389,5.676889184117318,-0.3460473929593364,0.023074369312873225,0.751633327685909,-0.561040208914358
5.632576060295105,-5.801445402503014,5.7080285310745245,-0.531945286460428,0.3037230958649706,0.687686143080925,-0.3897104846744729
5.642157307863235,-5.848154130578042,5.71281915485859,-0.6397275384818033,0.5397631573396184,0.5228983209755359,-0.16118857406077042
5.664912917017937,-5.868514135479927,5.672098560333252,-0.6525685272203526,0.6993523326949014,0.27501288397939744,0.09710069866378157
5.674494164586068,-5.8948628586530685,5.594251070022583,-0.5682687058896071,0.7513779859710307,-0.008215903153495801,0.3353122411127298
5.63736668407917,-5.8984553879499435,5.572692970633507,-0.4006079842535501,0.6931387374927418,-0.2902039368553677,0.524264826755449
5.63736668407917,-5.9104322397708895,5.564309817552567,-0.17412374354797872,0.533163411193339,-0.5296702214937552,0.636291721901422
5.63736668407917,-5.882886006832123,5.575088574886323,0.07786513776880831,0.29494893217104695,-0.6913654725993906,0.6549472734723193
5.638564193844796,-5.832584749460221,5.578681688904762,0.3184788493255108,0.013424368440965206,-0.751601271265517,0.5774829329913728
5.660122293233872,-5.775097264051437,5.61820418894291,0.5123920518114781,-0.27001128008754466,-0.7014839159173557,0.4152934017958404
5.676889184117318,-5.805038516521454,5.6732960700988775,0.6327384041682316,-0.5189888417790832,-0.5437002119637521,0.18623311604013004
5.678086693882943,-5.830189145207405,5.670901050567627,0.6564982472483235,-0.6852073605795601,-0.30857491206639037,-0.06544041572828783
5.679284788370133,-5.8613284921646125,5.63018045604229,0.5838325690604047,-0.7508527727719098,-0.028169967576258982,-0.3075160123502763
5.672098560333252,-5.884083516597748,5.577483594417572,0.4254584373543939,-0.7062896591535418,0.25634116302532944,-0.5044097972834711
5.636169174313546,-5.9044441062212,5.487659837007523,0.20460144138816067,-0.5580551747984503,0.5032952539413587,-0.6272213001984717
5.632576060295105,-5.8493516403436665,5.497241084575653,-0.04619645581029069,-0.32786234369930395,0.6762730901331403,-0.6580477783689727
5.615808584690094,-5.805038516521454,5.617006679177284,-0.2955957999621459,-0.04253009406807936,0.7504776844343224,-0.5895740490467647
5.6241923224926,-5.748748540878296,5.697249189019203,-0.49563705927448476,0.2426839620182222,0.7113834024376346,-0.43518048530366493
5.670901050567627,-5.781085397601128,5.716411684155465,-0.6229438219956551,0.49229368838250454,0.5679315359836817,-0.21689096212477602
5.693656659722328,-5.813422254323959,5.725992931723595,-0.6587909427298803,0.6697135534352852,0.34113198349070456,0.03327491490382877
5.694854169487954,-5.8265960311889655,5.743957917094231,-0.5978939087847066,0.7488591263644276,0.06424085212698158,0.27857852684090817
5.645750421881676,-5.832584749460221,5.761922902464867,-0.44924705779070323,0.7180740762704316,-0.22207417865872048,0.4829386723258114
5.613413565158845,-5.868514135479927,5.670901050567627,-0.23457739289834426,0.5819603932930794,-0.4758281219772858,0.6163466116681015
5.642157307863235,-5.947559720277787,5.487659837007523,0.02067084286526503,0.354506858576418,-0.6631707108947925,0.6588643348131803
5.656529179215432,-5.965524120926857,5.403823628425599,0.2672263046829123,0.07938322308995138,-0.7476956735171948,0.602693608545034
5.63018045604229,-5.8601303976774215,5.474485475420952,0.47457427333546487,-0.2073873156376389,-0.7223890507056986,0.45817444256663803
5.620599208474159,-5.7954572689533235,5.593053560256958,0.6123256040151498,-0.463733192687603,-0.5909795119554025,0.24647940505486218
5.640959798097611,-5.777492283582688,5.739167293310166,0.6602592566402413,-0.6519985891933889,-0.3727647419547172,-0.0014145197557060226
5.678086693882943,-5.800247892737389,5.844561016559601,0.6112706473301687,-0.7445265421859725,-0.09984944453832681,-0.2491154594129871
5.705632926821709,-5.844561016559601,5.802642912268639,0.472461609723852,-0.7278647402629979,0.1876366133261054,-0.4602015303739601
5.700842303037644,-5.9367803782224655,5.603832317590713,0.2584942309090077,-0.6004563038654717,0.4532735396572487,-0.6059505408707592
5.6577266889810565,-6.0098378294706345,5.487659837007523,0.010934324888887834,-0.3865689618946637,0.6455579372791715,-0.6585589023426587
5.601436713337899,-5.976303462982178,5.449334846735001,-0.23818242932264222,-0.1158961076268434,0.7430786013684612,-0.6145497659158314
5.578681688904762,-5.896060368418694,5.469694851636887,-0.4523126462724885,0.1717727176609704,0.7314923968963184,-0.48044383310874356
5.602634807825089,-5.80982914030552,5.509217351675034,-0.6001503566080972,0.4341766905533823,0.6125528316919158,-0.2758426711542317
5.649342951178551,-5.805038516521454,5.628982946276665,-0.6599969322895375,0.6328519635534477,0.4036834869677329,-0.030693386006068274
5.687667941451073,-5.799050382971764,5.7571322786808015,-0.6229598012478402,0.7386336428969407,0.1355628092003694,0.21900719707751698
5.73078355550766,-5.797852288484574,5.8493516403436665,-0.49027466188218716,0.7346839220960482,-0.15928165424299148,0.4410211391208942
5.702039812803268,-5.886479120850563,5.790666645169258,-0.2877129385188047,0.6215640455231168,-0.4238974255446521,0.5926131747931592
5.668505446314812,-5.9870822203159335,5.63377357006073,-0.04291014421762055,0.41727528447276424,-0.6263148259322444,0.6570919230281705
5.612216055393219,-5.981094086766244,5.518798599243165,0.2082066072351682,0.15170329688506293,-0.736800307134539,0.6251091311317344
5.5702979511022574,-5.9319897544384,5.460113604068757,0.4287205724782275,-0.1360775111324159,-0.7391277703850161,0.5013698442702982
5.5966460895538335,-5.807433536052704,5.452927376031876,0.5863900723646588,-0.40381750071694006,-0.6329563198518277,0.3040467173092404
5.628982946276665,-5.789469135403634,5.479276099205017,0.6584094975835516,-0.6164134940274734,-0.4282529790683186,0.05595287116607619
5.672098560333252,-5.778689793348312,5.572692970633507,0.6311827953732311,-0.7325018112935429,-0.1643998190369016,-0.19499249928432283
5.692458565235138,-5.769108545780182,5.771504150032998,0.5114013661501274,-0.7409490504596078,0.12367399300085183,-0.41733426743800245
5.658924198746681,-5.752341654896736,5.915222863554955,0.3165965968734869,-0.640571771919967,0.39362236787839155,-0.5783561457901601
5.666110426783562,-5.8110266500711445,5.909234730005265,0.0753544126091955,-0.44624406342787326,0.6057831678063038,-0.6543811595379736
5.691261055469513,-5.917617883086205,5.73078355550766,-0.17700655462784148,-0.18649734245228825,0.7291032550169894,-0.6342679752286458
5.694854169487954,-5.977500972747803,5.497241084575653,-0.4033882668869798,0.10053153462948229,0.745484897963812,-0.5209832853277011
5.646947931647301,-5.941571002006531,5.354719880819321,-0.5735049770659232,0.3788938474025257,0.6490985668384014,-0.3258873182703795
5.606227337121964,-5.802642912268639,5.419393009543419,-0.6548828998736024,0.5946642683874392,0.4582216981744925,-0.08680824084415695
5.571495460867882,-5.675691674351692,5.555926079750061,-0.6401850041910123,0.7231280271778854,0.20006212769589524,0.1649974599215524
5.63736668407917,-5.6732960700988775,5.638564193844796,-0.531470703206738,0.7454720556109676,-0.08741970894911892,0.392642458762861
5.706830436587334,-5.7499460506439215,5.748748540878296,-0.34471560192619266,0.6583594807427167,-0.3621005784117311,0.5626874079084524
5.72120230793953,-5.805038516521454,5.888874140381813,-0.10744546810356503,0.47454150236927106,-0.5836264334362624,0.6501123134563666
5.690063545703889,-5.840967902541161,5.846956620812416,0.1455383609119807,0.2210901693278714,-0.7195492437817477,0.6420176074709651
5.667307936549187,-5.918815977573395,5.678086693882943,0.38206726017851383,-0.07174728010372161,-0.7494158090944004,0.535959776080992
5.632576060295105,-5.993070353865623,5.549937946200371,0.5566714967975396,-0.3473026433183643,-0.6671280820053173,0.3527574815608742
5.600239203572274,-6.024209700822831,5.470892361402512,0.6495644927031744,-0.571917940611688,-0.48693113625545886,0.11778755269858104
5.5966460895538335,-5.8984553879499435,5.4062192326784135,0.6471304176333941,-0.712577985301947,-0.23531175709448965,-0.13447384284592698
5.6194016987085345,-5.777492283582688,5.456520490050316,0.5498068968432335,-0.7486056143474684,0.050812952587473106,-0.3670423057365549
5.644552327394486,-5.769108545780182,5.603832317590713,0.3718774001621828,-0.6747069324262738,0.3294685168078043,-0.5458280416184285
5.684075412154198,-5.753539164662361,5.793061664700509,0.13337917705211438,-0.4966704874960529,0.5644611153786897,-0.6456872859246799
5.723597912192345,-5.7882710409164435,5.8948628586530685,-0.11960790677494076,-0.24877209243281728,0.7102592807876942,-0.6475632391654597
5.733179159760476,-5.880490987300873,5.817014783620834,-0.3550342303916091,0.035652268502419246,0.7519537769489174,-0.5542969676384015
5.705632926821709,-5.924804111123085,5.617006679177284,-0.5383042752255515,0.3148417209392527,0.6834124401759324,-0.37954003035606293
5.654133574962616,-5.952350344061852,5.491252366304398,-0.6425341898024431,0.547878736612167,0.5145664162437875,-0.14899700727598136
5.594251070022583,-5.9367803782224655,5.485264232754708,-0.652436970852794,0.7004663935530548,0.2701722082114966,0.10334315883178301
5.5966460895538335,-5.884083516597748,5.468497341871262,-0.5666221448484754,0.7502067179445,-0.01384902575902273,0.34049585871751903
5.617006679177284,-5.806236026287079,5.564309817552567,-0.39278543913741626,0.6870980423392241,-0.30223236194523634,0.5312922721141692
5.649342951178551,-5.7343766695261005,5.642157307863235,-0.16451939732796428,0.5232521229502677,-0.5391195944449351,0.6391327300462791
5.704435417056084,-5.714016664624214,5.690063545703889,0.08795074991316108,0.28262888976385114,-0.6969337362563598,0.6531990075989983
5.728388535976411,-5.745155426859856,5.773899169564247,0.32753532715032946,0.000416750083118707,-0.7524681593188178,0.5714123773591582
5.709226040840149,-5.805038516521454,5.790666645169258,0.5189494424660296,-0.28187235831556906,-0.6975771696114027,0.4057407327577065
5.687667941451073,-5.873304759263992,5.63137855052948,0.634113716258211,-0.5228324427450902,-0.5403636585373798,0.18042491013854192
5.652936065196991,-5.927199130654335,5.464904227852822,0.6561136243299571,-0.6870837209066314,-0.3038681446381478,-0.07137943056564593
5.636169174313546,-5.9367803782224655,5.52119420349598,0.5788794749450282,-0.7507044068509156,-0.01575182749056382,-0.31795176828049115
5.599041693806648,-5.830189145207405,5.555926079750061,0.4175231752050846,-0.7012056703752731,0.2682068346177884,-0.5119082924357978
5.626587926745415,-5.742760407328606,5.579879198670388,0.19490702146235106,-0.548835268995955,0.5127352396137148,-0.6307881376096722
5.679284788370133,-5.766713526248932,5.640959798097611,-0.05632007165521935,-0.3159216070724169,0.6820198350156229,-0.6571685722543302
5.727191026210785,-5.82539852142334,5.72240040242672,-0.29932478489665065,-0.03658931381114361,0.7512183294650816,-0.5871430121674749
5.7080285310745245,-5.7882710409164435,5.763120412230492,-0.4983732342775588,0.24813343288050482,0.7101699625036243,-0.4309437819487159
5.686470431685448,-5.8110266500711445,5.778689793348312,-0.6242486839953603,0.49650710864320624,0.5648641591214931,-0.21147754806785693
5.660122293233872,-5.868514135479927,5.705632926821709,-0.6578704872598038,0.675211863026775,0.33054197627533516,0.045137168059768154
5.660122293233872,-5.9260016208887105,5.588262936472893,-0.5930677702769406,0.7495079104235057,0.052341856507314835,0.2894284749790452
5.628982946276665,-5.946361625790597,5.53915860414505,-0.4412539562090492,0.7137778337906995,-0.23352171273012426,0.4912064329816015
5.632576060295105,-5.9044441062212,5.469694851636887,-0.22469035302190288,0.5733609329970427,-0.48507363707742046,0.6208663724056379
5.652936065196991,-5.7954572689533235,5.512810465693474,0.024834338716685046,0.34876969654808154,-0.6654043235433346,0.6595301665580593
5.654133574962616,-5.778689793348312,5.645750421881676,0.27073180943964503,0.07294248116820645,-0.7480488493709369,0.6015036165754774
5.678086693882943,-5.789469135403634,5.725992931723595,0.48100291978273424,-0.22026803766988617,-0.7190393104162237,0.4506668978499568
5.697249189019203,-5.813422254323959,5.81581727385521,0.6153038153571733,-0.4741781063217613,-0.5836949953470278,0.23633977807141843
5.685272921919823,-5.831386654973031,5.782282907366753,0.6592066753481466,-0.6585517991289696,-0.3627592849410625,-0.012719600209504993
5.690063545703889,-5.868514135479927,5.684075412154198,0.6062629076031802,-0.7463388858274864,-0.08861700230781465,-0.2599434193594842
5.6732960700988775,-5.921210997104645,5.599041693806648,0.4642948818992452,-0.7246145625871849,0.19850516373600818,-0.4689986122568905
5.648145441412926,-5.896060368418694,5.509217351675034,0.2541820379561546,-0.5966148312263868,0.45643764243101353,-0.6091854506742459
5.645750421881676,-5.873304759263992,5.437357994914056,0.006781146742027993,-0.3810830645114826,0.647399592903703,-0.6600026371913372
5.638564193844796,-5.83497976899147,5.454125470519066,-0.24724460063506515,-0.10272972458334821,0.7444717413089508,-0.6116196019882417
5.648145441412926,-5.74036480307579,5.546344832181931,-0.459035208349456,0.18465298035598587,0.7285811751696635,-0.47366594296995385
5.681679807901383,-5.693656659722328,5.632576060295105,-0.6035240856912837,0.4449510849005786,0.6057491866737128,-0.26616749027714404
5.73078355550766,-5.716411684155465,5.747551031112671,-0.6594598868196184,0.6399489620660757,0.39394736163604294,-0.01958213181472434
5.736772273778915,-5.753539164662361,5.8948628586530685,-0.618631826524469,0.7409713705890271,0.12423439058261293,0.22983017072391718
5.709226040840149,-5.808631630539894,5.8601303976774215,-0.486907086102646,0.7332984079325219,-0.16368590005721034,0.4454232375495468
5.698447283506393,-5.863723511695862,5.606227337121964,-0.28357681857596756,0.6181609679752766,-0.42753422600341867,0.5955465483351066
5.686470431685448,-5.963129101395607,5.363103618621826,-0.03242922519156423,0.4066295852681025,-0.6325965416186984,0.65834819151436
5.643354817628861,-5.935582868456841,5.3559173905849455,0.21793635166793812,0.13926225886119437,-0.7389256946483184,0.6221724742119719
5.605029827356339,-5.771504150032998,5.512810465693474,0.43629164198652154,-0.14858016608412714,-0.7366709230471481,0.49486310078240914
5.6194016987085345,-5.6577266889810565,5.63736668407917,0.5906833245745219,-0.414630014076903,-0.6262447659592434,0.29494517220125815
5.663714822530746,-5.699644793272019,5.73198164999485,0.6583875315239263,-0.619807650933122,-0.4238984518833662,0.0517149559555255
5.7343766695261005,-5.7882710409164435,5.776294773817063,0.6294036570451181,-0.734023995575998,-0.1593702451406264,-0.19915053447253214
5.759527298212052,-5.827794125676156,5.8601303976774215,0.5040110290199991,-0.7393853577177334,0.13545474250269227,-0.4253635952362994
5.7188072884082795,-5.8613284921646125,5.8182128781080245,0.30662560782082454,-0.6346900529161725,0.4035069090401016,-0.5833793343225994
5.688866035938263,-5.9044441062212,5.628982946276665,0.06419954463448704,-0.43695420125539247,0.6123696579468786,-0.655707897237794
5.662517312765122,-5.958338477611542,5.43855550467968,-0.1876924922935957,-0.17512190257351432,0.7314289772939384,-0.6317558854101751
5.63736668407917,-5.911629749536514,5.359510504603386,-0.41201308894423583,0.11236062043969462,0.7431713437325438,-0.515088981990298
5.643354817628861,-5.781085397601128,5.457717999815941,-0.5759722581798352,0.3834103936160581,0.6457602372010264,-0.32287171434561246
5.617006679177284,-5.705632926821709,5.6697035408020025,-0.655478065355011,0.5981827424901771,0.45341527815445976,-0.0833096510705471
5.645750421881676,-5.723597912192345,5.799050382971764,-0.6370173636245289,0.7269985015332459,0.1878735108413883,0.17431466126921386
5.72120230793953,-5.736772273778915,5.760725392699242,-0.5243487407427234,0.7448353241427286,-0.09958239738459133,0.40045234937736834
5.759527298212052,-5.805038516521454,5.705632926821709,-0.33465232416077334,0.6533975400269846,-0.37241967367306417,0.5677878682058345
5.7463535213470465,-5.851747244596481,5.692458565235138,-0.09584286741833985,0.465997364833204,-0.590613241827071,0.6517949058653789
5.690063545703889,-5.92360660135746,5.615808584690094,0.15702038994624848,0.21015118050789014,-0.7221473451406115,0.6400658484707921
5.650541045665741,-5.9715128391981125,5.496042990088463,0.38673978037532775,-0.07652112642472272,-0.7477094336479966,0.5343289832301139
5.650541045665741,-5.91642037332058,5.4062192326784135,0.5596979908291266,-0.3519343170312691,-0.6635237397568027,0.3501665922624826
5.654133574962616,-5.801445402503014,5.451729866266251,0.6514788763375338,-0.5801564959650868,-0.47664799535134694,0.10862965710633021
5.686470431685448,-5.7080285310745245,5.5966460895538335,0.6447210917556475,-0.7168962966172214,-0.22302775118252066,-0.14371164164529798
5.688866035938263,-5.639761703610421,5.767911036014557,0.543418867664695,-0.7483721742729869,0.06332957550995985,-0.37499918387334
5.727191026210785,-5.676889184117318,5.752341654896736,0.3621733140622329,-0.6701612979749362,0.34039806868436434,-0.5512199924836567
5.770306640267372,-5.796654778718949,5.751144145131112,0.12775391385197454,-0.4935393350796958,0.5675937553345612,-0.6464790724608216
5.7343766695261005,-5.884083516597748,5.752341654896736,-0.12539624104700692,-0.24435531434953892,0.7114447001468549,-0.6468482833813278
5.643354817628861,-5.929594734907151,5.611017960906029,-0.3599875604968415,0.040662326321074256,0.7509263828203665,-0.5521459038062418
5.62179730296135,-5.880490987300873,5.463706718087197,-0.5450807781047922,0.32604116029241903,0.6773089134692127,-0.3712637106842008
5.62179730296135,-5.8948628586530685,5.524786732792855,-0.6452916420855778,0.5565176740994587,0.504449320138824,-0.1393472586056347
5.63018045604229,-5.805038516521454,5.662517312765122,-0.650874894478759,0.7051748435550655,0.2575515138373438,0.11294923405869323
5.662517312765122,-5.6960516792535785,5.72120230793953,-0.5609514083419932,0.7503162577213592,-0.027117952540929628,0.34874582080383015
5.704435417056084,-5.710423550605774,5.73078355550766,-0.3886938178079293,0.6853997257654023,-0.3077249294653896,0.5333382601165311
5.727191026210785,-5.779887887835503,5.7188072884082795,-0.15930502022838955,0.5199486582645206,-0.5432530609554589,0.6396494470110029
5.741562897562981,-5.806236026287079,5.700842303037644,0.09952049208434947,0.2717693516633266,-0.7017222223894426,0.6510169074276073
5.716411684155465,-5.797852288484574,5.6194016987085345,0.33785298711153666,-0.011229220859004928,-0.752290552337666,0.5654981773288054
5.697249189019203,-5.843363506793976,5.491252366304398,0.5265614484989503,-0.2926152103074311,-0.6925225978357324,0.3968902003555561
5.6960516792535785,-5.9044441062212,5.4828692132234575,0.6379662707227673,-0.531117971971837,-0.53103768451589,0.17003445207548404
5.675691674351692,-5.8601303976774215,5.576286084651947,0.6557719879918352,-0.691578108375311,-0.2915720122232794,-0.08166138297463943
5.6732960700988775,-5.790666645169258,5.628982946276665,0.5773611072096444,-0.7505091433138477,-0.009319982496874988,-0.3214083315818462
5.678086693882943,-5.766713526248932,5.636169174313546,0.41427173869591766,-0.6993051113748129,0.27417471779237373,-0.5139839606898196
5.71281915485859,-5.796654778718949,5.6349710798263555,0.18444159259435872,-0.540795196247543,0.5225840106782662,-0.6327936523229795
5.7188072884082795,-5.8230035018920905,5.690063545703889,-0.06765687589651906,-0.30532578193380566,0.6877237684393254,-0.655160081471732
5.694854169487954,-5.760725392699242,5.7080285310745245,-0.30982304472635563,-0.025040921513437956,0.7519296018734096,-0.5813643496403473
5.682877317667008,-5.7846785116195685,5.611017960906029,-0.5065052591304864,0.2589669269523674,0.7058362479035233,-0.4221181639819377
5.691261055469513,-5.868514135479927,5.585867332220078,-0.6287788894217944,0.5050320742151413,0.5560931095990854,-0.20084861385597438
5.664912917017937,-5.8565378683805465,5.597844184041024,-0.6587200138950322,0.6768766019013407,0.3247218715325166,0.049816816849757625
5.662517312765122,-5.7954572689533235,5.597844184041024,-0.5919938528357063,0.7493276995728163,0.045702318394447834,0.29319374984985597
5.661319802999497,-5.793061664700509,5.602634807825089,-0.43370601717454665,0.7096761494953432,-0.24663363500966123,0.49742406816113793
5.672098560333252,-5.796654778718949,5.63736668407917,-0.21454823080917232,0.5653452293994324,-0.49574670342992017,0.6233690995632716
5.698447283506393,-5.808631630539894,5.735574179291725,0.03609158779958014,0.33796598909922404,-0.6720795512607781,0.6578643205702828
5.678086693882943,-5.797852288484574,5.82539852142334,0.2813706165204867,0.060953000110564384,-0.7497396046849086,0.5958236594021084
5.667307936549187,-5.817014783620834,5.747551031112671,0.48531443744569963,-0.22500472171308786,-0.7174338230055711,0.44624150593730155
5.686470431685448,-5.888874140381813,5.602634807825089,0.6179826814929927,-0.47796755714113615,-0.5798855981755072,0.23103487339338866
5.675691674351692,-5.957140967845917,5.595448579788208,0.6596034564415271,-0.6641180909132932,-0.35112290505420657,-0.024148439253250803
5.625389832258225,-5.890072234869003,5.617006679177284,0.6024727966883486,-0.747269112041366,-0.07527676406547183,-0.2700903778946214
5.615808584690094,-5.801445402503014,5.555926079750061,0.4569246470592146,-0.7208147644466518,0.21150171755188893,-0.4763538241036078
5.656529179215432,-5.745155426859856,5.569100441336632,0.24425789226915232,-0.5885598542182066,0.46729480288662145,-0.6128384348766225
5.670901050567627,-5.758329788446427,5.748748540878296,-0.004241241163650843,-0.3698081988958897,0.6544822487625521,-0.659451964859824
5.685272921919823,-5.753539164662361,5.817014783620834,-0.2520913807691567,-0.09682166683757146,0.7455868803691129,-0.609241909584484
5.735574179291725,-5.797852288484574,5.714016664624214,-0.4629417646406441,0.19036188674591895,0.7273286563057019,-0.4695107031181318
5.7571322786808015,-5.879292892813683,5.578681688904762,-0.6080469472133305,0.45523100964377083,0.5982955677506379,-0.2551196806465627
5.72120230793953,-5.891269744634629,5.514007975459099,-0.6597158421886896,0.6464535700882837,0.3831645909726246,-0.007595097771708295
5.674494164586068,-5.836177278757096,5.499636104106903,-0.6145652548696041,0.7427718658854848,0.11177403509130095,0.2410520023469262
5.675691674351692,-5.808631630539894,5.440951108932495,-0.479191635771945,0.7301204276067657,-0.1759239452425995,0.4542579695369141
5.715214174389839,-5.763120412230492,5.437357994914056,-0.27342933377787076,0.6102794400187482,-0.43786281285494544,0.6008923045263168
5.7116210603713995,-5.7571322786808015,5.567902346849442,-0.027572746960295925,0.4007143624014422,-0.6355028665621442,0.6593965802016011
5.678086693882943,-5.737969783544541,5.73198164999485,0.22225901480663848,0.13225953278649258,-0.7397975920357496,0.6211343406561805
5.670901050567627,-5.751144145131112,5.917617883086205,0.44384718676582313,-0.1625233021480802,-0.7340921881218574,0.4875392398539956
5.692458565235138,-5.838572883009911,5.882886006832123,0.5946010501712368,-0.42653233892706055,-0.6193422235881205,0.284490711738707
5.727191026210785,-5.9367803782224655,5.670901050567627,0.6579648967332232,-0.6278939952906603,-0.4138375295003916,0.039621011115111106
5.720004798173905,-5.960733497142792,5.516403579711914,0.6247433533568859,-0.7371109257279236,-0.14761367699121317,-0.2111242003514764
5.664912917017937,-5.879292892813683,5.475682985186577,0.4999153670003368,-0.7381134115825551,0.14020095922527842,-0.43083280807198543
5.638564193844796,-5.758329788446427,5.543949227929115,0.30180048525972547,-0.6307248386104675,0.4074888173121983,-0.5874142565705226
5.6241923224926,-5.666110426783562,5.583472312688828,0.05936924398597857,-0.4307851813479921,0.6149766476706509,-0.6578017506964231
5.679284788370133,-5.674494164586068,5.63736668407917,-0.19764194654819756,-0.1608964415860494,0.7338772103138101,-0.6296620015783119
5.723597912192345,-5.742760407328606,5.714016664624214,-0.4196677811110968,0.12691141686506555,0.7409620893647658,-0.5086724170729044
5.733179159760476,-5.782282907366753,5.769108545780182,-0.5800554155072546,0.3961620926016351,0.6392494438722268,-0.3129719793132422
5.714016664624214,-5.827794125676156,5.728388535976411,-0.6551953549458475,0.6072570081174059,0.4436935779253158,-0.0713721364225122
5.670901050567627,-5.878095383048058,5.672098560333252,-0.6341237520507733,0.7292275537678902,0.18294984375476694,0.18067539008081485
5.654133574962616,-5.8996534824371345,5.555926079750061,-0.5199440908097953,0.7441658650157051,-0.10454097772998464,0.4061360507916794
5.674494164586068,-5.875700363516808,5.474485475420952,-0.32405278159933787,0.646475972206832,-0.38274329987283573,0.5749488485938692
5.672098560333252,-5.807433536052704,5.515205485224724,-0.08446156039689703,0.4547366991574353,-0.5977392059459877,0.6548195331003662
5.663714822530746,-5.736772273778915,5.626587926745415,0.16747077178462555,0.19624239638774552,-0.7249337594522735,0.6386810681899457
5.675691674351692,-5.678086693882943,5.688866035938263,0.3948884629030215,-0.09102978609604485,-0.7457621736422102,0.5287867814855467
5.723597912192345,-5.7188072884082795,5.729586045742035,0.5643623944836449,-0.36497690481667205,-0.657168850942894,0.3411979601250938
5.754736674427987,-5.873304759263992,5.7954572689533235,0.6509466202516457,-0.5853770403355597,-0.472083839060364,0.10362947036904388
5.699644793272019,-5.8948628586530685,5.72479542195797,0.6418803870317259,-0.7199578814004294,-0.2177350649758154,-0.14913637796790044
5.684075412154198,-5.796654778718949,5.531972960829735,0.534805181785704,-0.7483894868969873,0.07540959164120344,-0.38498050200722
5.679284788370133,-5.8649210214614875,5.455322980284691,0.3507066902860733,-0.6648158909109994,0.35081162426133805,-0.5585300823267484
5.645750421881676,-5.91402535378933,5.540356698632241,0.11514082688992124,-0.48356137259169685,0.5747280785773893,-0.6500758606617243
5.655331669449806,-5.817014783620834,5.53317047059536,-0.13731825700261807,-0.23140594950576465,0.7141993823134289,-0.6461534068084877
5.688866035938263,-5.760725392699242,5.505624237656594,-0.3696572282027295,0.05468615288677871,0.7488097149871118,-0.547400190957986
5.74036480307579,-5.805038516521454,5.594251070022583,-0.5478243311447163,0.33282250649985545,0.6733915307706074,-0.3683225864095439
5.697249189019203,-5.791864154934883,5.752341654896736,-0.645578513482473,0.5620635833874088,0.4990184085397294,-0.13525361029540592
5.693656659722328,-5.7846785116195685,5.846956620812416,-0.6472813011642345,0.7111956013666562,0.24482942083798823,0.12363773069735357
5.692458565235138,-5.812224159836769,5.805038516521454,-0.5528683140432852,0.7512011628649454,-0.0400250484940909,0.35837331894315877
5.717609778642655,-5.876897873282433,5.6732960700988775,-0.3771880561131126,0.6810352791546724,-0.3190264696816917,0.5405018321104614
5.720004798173905,-5.906839125752449,5.4828692132234575,-0.14602884792761106,0.510987405996072,-0.551194494382133,0.6432356301147852
5.687667941451073,-5.8876766306161885,5.422986123561859,0.10654760935664946,0.265935272939445,-0.70242560163671,0.6515553021135748
5.632576060295105,-5.830189145207405,5.537961094379425,0.34346258923710854,-0.018291194142836413,-0.7504802408158356,0.5643388079481826
5.609820451140404,-5.7188072884082795,5.709226040840149,0.5334655131288005,-0.30621499310070555,-0.6855970134077596,0.3893631460589468
5.662517312765122,-5.688866035938263,5.720004798173905,0.6401067277006128,-0.5420585190750015,-0.5202924528608749,0.16041104247103488
5.748748540878296,-5.760725392699242,5.692458565235138,0.6527845346715182,-0.6983816712735702,-0.27863502857718203,-0.09218412755251003
5.739167293310166,-5.850549150109291,5.752341654896736,0.5696780726861992,-0.7521886289264529,0.003977300630810758,-0.33115455771281876
5.674494164586068,-5.8565378683805465,5.763120412230492,0.40296193293316596,-0.6955850009738644,0.2860983861032312,-0.5214699420830334
5.632576060295105,-5.848154130578042,5.655331669449806,0.1770844570256467,-0.5369322183862898,0.5262253170674992,-0.6351628166194236
5.645750421881676,-5.885281611084938,5.555926079750061,-0.07477926518896762,-0.2995480023408242,0.6890975288504607,-0.6556093741883258
5.670901050567627,-5.880490987300873,5.559519193768502,-0.32101262220363086,-0.011258751365998415,0.7510602615670784,-0.5768298019333081
5.670901050567627,-5.80982914030552,5.567902346849442,-0.5142174862843493,0.27224108066727754,0.6999280917642374,-0.41420506655012246
5.710423550605774,-5.755934768915177,5.561914213299752,-0.6319563253136391,0.5157239326371591,0.5461164595648589,-0.19083197005137506
5.717609778642655,-5.753539164662361,5.640959798097611,-0.6570361892294214,0.6835345071078294,0.3121199030637307,0.06054081059272294
5.723597912192345,-5.805038516521454,5.705632926821709,-0.5857359943431715,0.751047991492147,0.032367699823427284,0.3029729219164126
5.7188072884082795,-5.789469135403634,5.782282907366753,-0.4285275106915173,0.7083431589523622,-0.2522174158122739,0.5009995178709243
5.700842303037644,-5.764317921996117,5.7463535213470465,-0.20841897816465876,0.5617613140413202,-0.49977957704507253,0.6254647311847545
5.72240040242672,-5.782282907366753,5.611017960906029,0.04846704483222862,0.32664749730576237,-0.6771980074025884,0.6575372360855898
5.700842303037644,-5.848154130578042,5.511612955927849,0.2925144472474046,0.0482222369699469,-0.749981532430883,0.5913016277888842
5.6804822981357574,-5.8601303976774215,5.479276099205017,0.4936291521664896,-0.23731784264042782,-0.7127012532806852,0.43825497745949965
5.670901050567627,-5.8265960311889655,5.502031708359719,0.6222659393450769,-0.4879953001679962,-0.5708047787981693,0.22096966363306392
5.675691674351692,-5.763120412230492,5.512810465693474,0.6595978619960359,-0.6670699597372768,-0.34513928874497735,-0.028761095788889527
5.704435417056084,-5.71281915485859,5.575088574886323,0.6002100757627388,-0.7481823031759363,-0.06888476818331626,-0.27427357670685226
5.72479542195797,-5.728388535976411,5.691261055469513,0.4527749369073262,-0.7194502870044669,0.217569065664925,-0.479635114126821
5.727191026210785,-5.761922902464867,5.796654778718949,0.23313354026584865,-0.5807932632927939,0.47758606221358224,-0.6166356224677128
5.735574179291725,-5.779887887835503,5.787073531150818,-0.01623014580705618,-0.3588763848123257,0.6607384223154449,-0.6590668100179329
5.7343766695261005,-5.881688497066498,5.607425431609154,-0.263228507350661,-0.08432713199058017,0.7470329446470063,-0.6046002541681645
5.714016664624214,-5.949954739809036,5.504426727890968,-0.47159980668825974,0.20266180775555293,0.7236463861126478,-0.46136506356133206
5.640959798097611,-5.946361625790597,5.525984827280045,-0.6106962479924716,0.4598513780122384,0.5939818541234724,-0.2505441274510439
5.6194016987085345,-5.808631630539894,5.547542341947556,-0.6602011721518091,0.6495173975233011,0.3771642631710002,-0.002946386025619783
5.666110426783562,-5.74036480307579,5.569100441336632,-0.610406740262307,0.7449183267098759,0.09817023315750262,0.2507247560491478
5.714016664624214,-5.775097264051437,5.602634807825089,-0.4711410176676068,0.7274231424971462,-0.18915278006344294,0.461630738821603
5.737969783544541,-5.779887887835503,5.658924198746681,-0.2626809239134837,0.6031447785280835,-0.44875753939827046,0.6048402922916738
5.714016664624214,-5.785876021385193,5.741562897562981,-0.015714150511161123,0.39026759537638034,-0.6425059082541997,0.6592650660631855
5.678086693882943,-5.781085397601128,5.874502269029618,0.23349163804517492,0.12001009710910344,-0.741918067247669,0.6169577076642515
5.666110426783562,-5.802642912268639,5.820607897639275,0.4483751006789251,-0.1678353230641006,-0.732501736763291,0.4839754942782692
5.716411684155465,-5.867316625714302,5.670901050567627,0.5974270121553862,-0.43096310017086725,-0.6156486289497669,0.27987235860383786
5.697249189019203,-5.939175982475281,5.554728569984436,0.6589199729341801,-0.6347079708093564,-0.4026850357282421,0.02854860872324351
5.667307936549187,-5.8948628586530685,5.566704837083817,0.621389875234058,-0.7394188157819976,-0.1346012225157905,-0.22139771616122153
5.648145441412926,-5.770306640267372,5.584669822454453,0.4927473552884342,-0.7356148195853291,0.1532287264991359,-0.43885286650328503
5.668505446314812,-5.705632926821709,5.587064841985703,0.2917513268460237,-0.6239109672040406,0.41859254487131176,-0.5919430290697426
5.72479542195797,-5.710423550605774,5.611017960906029,0.04787927494519936,-0.42072355756598034,0.6224963666395675,-0.6581774355447658
5.753539164662361,-5.739167293310166,5.667307936549187,-0.20308683957458584,-0.1557563852451379,0.7350612931223574,-0.627838020034039
5.760725392699242,-5.766713526248932,5.684075412154198,-0.4242619776107053,0.13212147056164553,0.7397478651530925,-0.5052907948616554
5.743957917094231,-5.794259759187699,5.63736668407917,-0.5857800875136391,0.40651887889857036,0.6322528756388855,-0.30308479245571307
5.742760407328606,-5.830189145207405,5.632576060295105,-0.6568391280265237,0.6142953594211475,0.4330760808365718,-0.060404300295875464
5.709226040840149,-5.8721072494983675,5.573891065120697,-0.6314608012547283,0.731927651122883,0.17037660298713533,0.1910784738138754
5.688866035938263,-5.842165997028351,5.487659837007523,-0.5133659140522385,0.7422134727247404,-0.11729653689223749,0.41450708272390074
5.700842303037644,-5.789469135403634,5.52119420349598,-0.31998634029518314,0.6435078320378723,-0.38776725156339586,0.577185386808591
5.715214174389839,-5.800247892737389,5.594251070022583,-0.07971349346072465,0.4503490619757788,-0.6012868871807128,0.6551988710630933
5.73078355550766,-5.758329788446427,5.582274218201637,0.1781577328934511,0.18445897206179923,-0.7284446399681719,0.6352976596350804
5.758329788446427,-5.753539164662361,5.605029827356339,0.4039560057470979,-0.1029485935878386,-0.7444021284710727,0.5216192132455182
5.755934768915177,-5.775097264051437,5.685272921919823,0.5704795042282403,-0.37529721330720406,-0.6510463861875035,0.33142682445984967
5.714016664624214,-5.769108545780182,5.737969783544541,0.6532275719918593,-0.5925802031597687,-0.4621309966602625,0.0926141670509429
5.700842303037644,-5.770306640267372,5.640959798097611,0.6400201549705828,-0.7229197880072211,-0.20551855107557515,-0.15976015305082175
5.73078355550766,-5.866119115948678,5.52358922302723,0.5328522940290582,-0.747246506590074,0.0812542814037414,-0.3887014701418846
5.717609778642655,-5.893664764165878,5.52957735657692,0.347520146188456,-0.6618509357256401,0.3561717902644412,-0.560646718256757
5.6804822981357574,-5.793061664700509,5.615808584690094,0.10519479320444088,-0.47398704764846494,0.5832688270779364,-0.651204890570775
5.697249189019203,-5.706830436587334,5.607425431609154,-0.1474335776054435,-0.21989916061776532,0.7185097866409734,-0.6431573569937646
5.739167293310166,-5.748748540878296,5.594251070022583,-0.37846762934607053,0.06648310448266813,0.7483313279931377,-0.540687038775241
5.737969783544541,-5.787073531150818,5.640959798097611,-0.5539413896697762,0.3431438633339069,0.6683076868790264,-0.3588398828522316
5.735574179291725,-5.778689793348312,5.648145441412926,-0.6480647781760167,0.5694396372978261,0.4902038170447629,-0.12430108815507325
5.72240040242672,-5.8218054074048995,5.6194016987085345,-0.6470548537987445,0.7121453911459651,0.24016647142677763,0.12840959484188294
5.723597912192345,-5.903246011734009,5.620599208474159,-0.5511464674784115,0.7503248126919404,-0.04511813981658533,0.3622355591384756
5.723597912192345,-5.878095383048058,5.585867332220078,-0.3692420965926004,0.6755066416778034,-0.3300687921218509,0.5462651770159789
5.72240040242672,-5.801445402503014,5.546344832181931,-0.13659633976784163,0.5019312008053879,-0.5595104809345626,0.6452554000893478
5.72240040242672,-5.753539164662361,5.53317047059536,0.11615827968093034,0.2547085050415983,-0.7068862494535554,0.6495711368699557
5.73078355550766,-5.753539164662361,5.617006679177284,0.3518784912765622,-0.02995279035424805,-0.7505218328044067,0.5585707978500482
5.709226040840149,-5.770306640267372,5.716411684155465,0.5359095364250784,-0.31027913262883244,-0.6840000189913117,0.38557982655170403
5.694854169487954,-5.753539164662361,5.717609778642655,0.641222312286149,-0.5450615407029332,-0.5171278829175712,0.15595068381427454
5.727191026210785,-5.794259759187699,5.667307936549187,0.651299933581304,-0.7024714732334031,-0.2679768122895445,-0.10261897429528123
5.727191026210785,-5.845758526325226,5.577483594417572,0.5645032010055577,-0.7518823254759476,0.01540074519570461,-0.3402527321547575
5.727191026210785,-5.848154130578042,5.537961094379425,0.39485556752711404,-0.6909176262664457,0.29653466397811484,-0.5280048366886114
5.71281915485859,-5.827794125676156,5.549937946200371,0.1673292237378954,-0.5285252388721261,0.5341113862396997,-0.6382687755542659
5.73198164999485,-5.807433536052704,5.525984827280045,-0.08479647109740596,-0.2885301929397504,0.6933343819583988,-0.6548643531647926
5.728388535976411,-5.754736674427987,5.589460446238518,-0.3244873913131609,-0.006151922107411538,0.7507410719038619,-0.5753763374434201
5.723597912192345,-5.73078355550766,5.698447283506393,-0.5165417236780563,0.2771084629401332,0.697920387753599,-0.41146406869193974
5.739167293310166,-5.758329788446427,5.748748540878296,-0.6342907676460962,0.5247973309985402,0.5379675139702997,-0.18125655124256937
5.759527298212052,-5.791864154934883,5.737969783544541,-0.6553348805101502,0.6888786455749908,0.3016261713253881,0.07073937255235649
5.773899169564247,-5.8182128781080245,5.640959798097611,-0.5801722306658672,0.7519053090264236,0.02109747529670466,0.31239956075221226
5.753539164662361,-5.806236026287079,5.531972960829735,-0.4198239830192565,0.7046324159816733,-0.26253080908850834,0.50825048539968
5.736772273778915,-5.805038516521454,5.52119420349598,-0.19792547974986188,0.5539308829208606,-0.5076360145706207,0.6295170832655452
5.705632926821709,-5.814619764089585,5.505624237656594,0.05300000199951726,0.3219068579624714,-0.6783190228832522,0.6583694082955939
5.692458565235138,-5.725992931723595,5.518798599243165,0.2961513409132146,0.04263228936116453,-0.7494457386995372,0.5905996579107
5.697249189019203,-5.652936065196991,5.5702979511022574,0.499746190054036,-0.24947360978343533,-0.7084235781933337,0.4314541660568956
5.7463535213470465,-5.676889184117318,5.648145441412926,0.6247404264000493,-0.49792451035287627,-0.5629478734711323,0.21180243947051888
5.778689793348312,-5.739167293310166,5.700842303037644,0.6580561949445073,-0.6732987118322923,-0.3348370767044356,-0.038923270727938476
5.778689793348312,-5.770306640267372,5.801445402503014,0.5948624156268751,-0.7498177468214016,-0.05750980364901466,-0.28390962560379546
5.745155426859856,-5.802642912268639,5.766713526248932,0.44433161587125936,-0.7163372631133929,0.22826687976618454,-0.4871596988814448
5.765516016483307,-5.827794125676156,5.554728569984436,0.22849349915472875,-0.5778624475565373,0.48048982524484557,-0.6188660924498722
5.753539164662361,-5.915222863554955,5.395439890623093,-0.020919535013377632,-0.3546060571614689,0.6622686292496395,-0.659709921094889
5.7188072884082795,-5.8876766306161885,5.402626118659973,-0.2727228740748001,-0.07236092642799763,0.7476753105100329,-0.6011387197116723
5.662517312765122,-5.763120412230492,5.4828692132234575,-0.4784889768053023,0.21435910242989156,0.7198990509419948,-0.45480086931983893
5.674494164586068,-5.661319802999497,5.602634807825089,-0.6141105165825116,0.46956877918721,0.5864341732433411,-0.24180238933433423
5.74036480307579,-5.675691674351692,5.676889184117318,-0.6596456242190979,0.6558630538156578,0.36696890397679155,0.006717782541038843
5.782282907366753,-5.690063545703889,5.794259759187699,-0.6084052291357517,0.7459257800727687,0.09365484067759237,0.25429624181406957
5.803841006755829,-5.74036480307579,5.820607897639275,-0.46781239215034515,0.7265730547047854,-0.19343403106423604,0.4645712405581826
5.800247892737389,-5.8110266500711445,5.755934768915177,-0.25280552846856186,0.5965305506466515,-0.45777555837260353,0.6088367639011173
5.736772273778915,-5.905641615986824,5.555926079750061,-0.0049958117077297335,0.3807460946278198,-0.6481865614751541,0.659440395194335
5.709226040840149,-5.941571002006531,5.376277395486832,0.24354415531052595,0.10912020157821488,-0.7434987101213874,0.6131791696310674
5.698447283506393,-5.8876766306161885,5.393044871091843,0.45635312978128484,-0.17853650522100817,-0.7295696764556585,0.47706878376045575
5.692458565235138,-5.781085397601128,5.485264232754708,0.6022349646645069,-0.43997577202597676,-0.6085056713708109,0.27102622617607414
5.6960516792535785,-5.654133574962616,5.569100441336632,0.6597869324662118,-0.6367903878776356,-0.39817499682658114,0.025216612691418436
5.763120412230492,-5.693656659722328,5.667307936549187,0.6205712620464185,-0.7401395515985776,-0.12943223251484792,-0.2243480556363127
5.813422254323959,-5.797852288484574,5.759527298212052,0.48604351600551016,-0.7335299301520937,0.16514752913429356,-0.44544565969476413
5.7954572689533235,-5.838572883009911,5.775097264051437,0.2823798930280925,-0.6179936475230762,0.4286132418130923,-0.5955133387062279
5.763120412230492,-5.8218054074048995,5.73078355550766,0.03725052588199371,-0.41173743795549067,0.6292074856686005,-0.6581661040238712
5.727191026210785,-5.869711645245553,5.61820418894291,-0.21333625747202856,-0.14508223421104682,0.7374776544592662,-0.6241518210639286
5.699644793272019,-5.92240850687027,5.442148618698121,-0.4325691979370022,0.14280394951497313,0.7375997767551887,-0.4984350412338193
5.705632926821709,-5.881688497066498,5.385858643054963,-0.5883401000294852,0.40974595892274235,0.6294522246980412,-0.2995898407263907
5.686470431685448,-5.758329788446427,5.4828692132234575,-0.6578634204264356,0.6164772940682053,0.4288796667082824,-0.056865608652041745
5.705632926821709,-5.646947931647301,5.607425431609154,-0.628970143095418,0.7343143188713448,0.15860935967881995,0.2000552704062481
5.753539164662361,-5.685272921919823,5.675691674351692,-0.50737201289742,0.7403254380893619,-0.1291847504677776,0.4216671513086985
5.803841006755829,-5.7571322786808015,5.751144145131112,-0.3112800660515487,0.6376859429269129,-0.39803653228662866,0.5814019931489685
5.813422254323959,-5.7954572689533235,5.790666645169258,-0.06949027492671825,0.44139604902845914,-0.6085047007570661,0.6557916275382211
5.758329788446427,-5.82539852142334,5.743957917094231,0.18244469272096592,0.18030884966996327,-0.7296883506372126,0.6338434852335324
5.72479542195797,-5.863723511695862,5.555926079750061,0.4075669893561669,-0.10718493030186219,-0.7438450959135102,0.5187436873724401
5.715214174389839,-5.881688497066498,5.43616048514843,0.5757685969407472,-0.3849348174422388,-0.6454011876004088,0.3221381941676207
5.725992931723595,-5.800247892737389,5.397835494875908,0.6549047810953624,-0.5991325363078844,-0.4532065379937433,0.08212043323949862
5.733179159760476,-5.723597912192345,5.44574173271656,0.637988039843918,-0.7254486781611758,-0.1944452104377531,-0.16996039688155617
5.735574179291725,-5.6241923224926,5.525984827280045,0.5274642075548593,-0.7452819894932228,0.0928717249549144,-0.39712857941660007
5.741562897562981,-5.645750421881676,5.684075412154198,0.33956944238138936,-0.655674563159327,0.3665898068207037,-0.5660347821130581
5.7571322786808015,-5.72240040242672,5.813422254323959,0.10183523402866029,-0.4697893173120006,0.5865310319673245,-0.6518503900353191
5.782282907366753,-5.7727016597986225,5.814619764089585,-0.15083973348572083,-0.2149715606635663,0.720407497369339,-0.641909371050052
5.785876021385193,-5.820607897639275,5.684075412154198,-0.3862302492335674,0.07829228567658073,0.7480351117739599,-0.5339850036600584
5.765516016483307,-5.892467254400254,5.531972960829735,-0.559101462073825,0.3533480463577012,0.6637897488007657,-0.34919032436355313
5.72240040242672,-5.892467254400254,5.467299247384072,-0.6499311840057642,0.5764946863120531,0.48210426542509055,-0.11322018357945968
5.688866035938263,-5.814619764089585,5.43975359916687,-0.6454040978985106,0.7150407405595494,0.22968144625167422,0.13934390192469945
5.7080285310745245,-5.684075412154198,5.4325673711299896,-0.5461862583573281,0.7486645442646579,-0.056395123614376465,0.3714856139544755
5.7188072884082795,-5.63377357006073,5.543949227929115,-0.36685004353988404,0.6723762663314394,-0.33424600524790027,0.5491910505505336
5.742760407328606,-5.679284788370133,5.741562897562981,-0.13368883908220364,0.4973194367805016,-0.5630549863964964,0.646351107680043
5.760725392699242,-5.702039812803268,5.886479120850563,0.12503050326416806,0.24274411911527982,-0.7116170558971852,0.6473359496001115
5.790666645169258,-5.753539164662361,5.8110266500711445,0.35944974251762707,-0.04217852632043563,-0.7510876619911666,0.5521631810670566
5.7954572689533235,-5.886479120850563,5.6577266889810565,0.5411068898508952,-0.32100523119686225,-0.6803825029076959,0.37581727612923743
5.748748540878296,-5.946361625790597,5.531972960829735,0.6432734702052739,-0.5526616551162135,-0.5098324397614543,0.14434410573748874
5.702039812803268,-5.908036635518075,5.479276099205017,0.6510590481749211,-0.703180867576588,-0.26445684514811596,-0.10826523134463922
5.688866035938263,-5.748748540878296,5.397835494875908,0.5633152069130521,-0.7505149763853743,0.019607160038061414,-0.3449910247484827
5.709226040840149,-5.703237907290459,5.402626118659973,0.3929105587121621,-0.6877506179371764,0.30081622935618985,-0.5311590877839264
5.735574179291725,-5.710423550605774,5.590657956004143,0.15890428255229094,-0.519023830150388,0.5428543629251126,-0.640837602966409
5.717609778642655,-5.6960516792535785,5.832584749460221,-0.09344746260993271,-0.27676609420821907,0.6986880964694041,-0.6530720057393771
5.7463535213470465,-5.727191026210785,5.82899163544178,-0.3320188225022411,0.006012533792643126,0.752012491386277,-0.5693896414061485
5.799050382971764,-5.8493516403436665,5.6960516792535785,-0.5218770495496726,0.287975251205557,0.695043681919877,-0.40203094416933355
5.787073531150818,-5.928397225141525,5.587064841985703,-0.6350776579690504,0.5276472590559531,0.5360960386742333,-0.17568658365703613
5.743957917094231,-5.854142264127732,5.53915860414505,-0.6551231045862865,0.6898462071027014,0.2984641446810177,0.07645314070115813
5.686470431685448,-5.779887887835503,5.500833613872528,-0.5759644438721918,0.7510404495983644,0.010087097873020031,0.3226475676625869
5.684075412154198,-5.73198164999485,5.517601089477539,-0.4130983048947774,0.699169575205004,-0.273325532298303,0.5155626528314141
5.703237907290459,-5.728388535976411,5.571495460867882,-0.18952074589742837,0.5446995480308094,-0.5166631921431474,0.6328060011835914
5.759527298212052,-5.710423550605774,5.687667941451073,0.061905249555556575,0.3102417866325532,-0.6841065243639259,0.6572031932570132
5.773899169564247,-5.796654778718949,5.736772273778915,0.3041504100437824,0.0302245587110835,-0.7511401957668623,0.5851217056512594
5.765516016483307,-5.863723511695862,5.686470431685448,0.5017458051457265,-0.2543003483596018,-0.7079277424395838,0.4271074704652755
5.754736674427987,-5.892467254400254,5.61820418894291,0.6256571388086868,-0.5014250855285154,-0.5608214714472218,0.20641052643753774
5.737969783544541,-5.891269744634629,5.595448579788208,0.6572011045337298,-0.6780602265947497,-0.3251983489805221,-0.05066627211730334
5.729586045742035,-5.8218054074048995,5.53915860414505,0.5905744265221898,-0.7498608614048955,-0.04658658669842131,-0.2945508873028309
5.759527298212052,-5.787073531150818,5.443346128463745,0.43722542683927945,-0.7116982865814503,0.23883646488191967,-0.4952540944252205
5.741562897562981,-5.789469135403634,5.474485475420952,0.21969841725285505,-0.5690431673752468,0.48931292377893454,-0.6232939448952218
5.714016664624214,-5.761922902464867,5.6241923224926,-0.030020725625897696,-0.3427825941648592,0.6679336571898444,-0.659896566715954
5.705632926821709,-5.702039812803268,5.684075412154198,-0.27529496396256814,-0.06626407908433486,0.7484884382188766,-0.5996555782218825
5.755934768915177,-5.698447283506393,5.675691674351692,-0.4802445713995695,0.22001439079550686,0.7191874898090899,-0.45136257486218984
5.769108545780182,-5.74036480307579,5.777492283582688,-0.6167565102372248,0.4794550924891191,0.5799341905244382,-0.2311072392354141
5.720004798173905,-5.743957917094231,5.794259759187699,-0.6586752392879606,0.6617907740036616,0.3575399441457899,0.018576569457458683
5.717609778642655,-5.770306640267372,5.63736668407917,-0.6037459283410805,0.7470766194478905,0.08275496836237217,0.2655541261159796
5.742760407328606,-5.886479120850563,5.485264232754708,-0.460156711151894,0.7227869664355424,-0.20410974421162306,0.473470183486399
5.748748540878296,-5.8876766306161885,5.433764880895615,-0.24901639089012903,0.5924257079025539,-0.4610498577906758,0.6119278113596488
5.72240040242672,-5.764317921996117,5.506822332143784,-0.001395149139576738,0.375001664394366,-0.65026842761314,0.6606987038808749
5.685272921919823,-5.6960516792535785,5.62179730296135,0.251974222006465,0.09560446325913409,-0.7450358181777763,0.6101560519091335
5.697249189019203,-5.715214174389839,5.660122293233872,0.46238469352361855,-0.19175870415838756,-0.72688745312362,0.4701740369969639
5.769108545780182,-5.716411684155465,5.6577266889810565,0.6049386216680446,-0.4508781994707863,-0.6021251632468495,0.26115780869294924
5.813422254323959,-5.745155426859856,5.6697035408020025,0.6587262608691541,-0.6438767772201349,-0.38898926140829254,0.013775467577797488
5.817014783620834,-5.7882710409164435,5.705632926821709,0.6158411353379343,-0.7423864422872467,-0.11870618621508762,-0.23560752892901704
5.755934768915177,-5.7954572689533235,5.6804822981357574,0.48259357023543775,-0.7319653691777784,0.16895166181469443,-0.450317088574157
5.7188072884082795,-5.817014783620834,5.537961094379425,0.27842302105767397,-0.6142241573954323,0.43185760103738563,-0.5989226312665298
5.735574179291725,-5.8601303976774215,5.419393009543419,0.027226023359673234,-0.4005962309821017,0.6352632637985581,-0.6597135659079301
5.715214174389839,-5.873304759263992,5.43975359916687,-0.22241629395811446,-0.13212480984074113,0.7396012456738219,-0.6213405058453992
5.710423550605774,-5.775097264051437,5.587064841985703,-0.4394687147194002,0.15578024199393187,0.7352868966551286,-0.4918871258677754
5.7080285310745245,-5.697249189019203,5.658924198746681,-0.5920413769836236,0.4207785156062521,0.6230420509498792,-0.29026031677048464
5.759527298212052,-5.723597912192345,5.649342951178551,-0.6576990362410815,0.6240323069425155,0.4194070618535027,-0.04597144860635565
5.800247892737389,-5.830189145207405,5.73078355550766,-0.6268550141008988,0.735697625126611,0.1541226502167073,0.20505610054276605
5.760725392699242,-5.8218054074048995,5.761922902464867,-0.5040233601215619,0.7393784332226867,-0.1337299163405602,0.4259064385665965
5.7463535213470465,-5.7834804171323775,5.62778543651104,-0.30159834091112014,0.6310229314805806,-0.40788936701304307,0.5869197261832432
5.7463535213470465,-5.852944754362107,5.43975359916687,-0.058837515238512134,0.4313046399789901,-0.615274915233532,0.6572299696586589
5.745155426859856,-5.928397225141525,5.422986123561859,0.1924886554211999,0.16829985377833004,-0.7323188184673755,0.631135821254727
5.720004798173905,-5.843363506793976,5.517601089477539,0.41559791350258046,-0.11946468738595037,-0.7418246230906006,0.5125454041707594
5.709226040840149,-5.703237907290459,5.6194016987085345,0.5777804750311472,-0.3896835080066423,-0.6424065119734665,0.31879516877534964
5.725992931723595,-5.655331669449806,5.686470431685448,0.6551771641158536,-0.6026971230869316,-0.4487574913173692,0.07820342339300135
5.789469135403634,-5.752341654896736,5.754736674427987,0.6363982694419473,-0.7272775328801582,-0.18924983250717853,-0.17392278089729923
5.790666645169258,-5.808631630539894,5.763120412230492,0.5202782099239359,-0.7443519156193197,0.10494951048131941,-0.4052609162526354
5.760725392699242,-5.831386654973031,5.6241923224926,0.32941412970408407,-0.6504028448345129,0.3769558375227141,-0.5712851889730929
5.739167293310166,-5.867316625714302,5.493647970557213,0.09018709712612206,-0.46097991903215463,0.593646241612985,-0.6534125355239591
5.692458565235138,-5.92001348733902,5.476880494952202,-0.16218560961156742,-0.20388031039913637,0.7231870901743138,-0.6396319876864235
5.697249189019203,-5.8649210214614875,5.496042990088463,-0.39079231192635866,0.08318116551814476,0.7465332778760776,-0.5320247434714797
5.703237907290459,-5.736772273778915,5.564309817552567,-0.5621120888419111,0.3579834375306132,0.6602244328628918,-0.34638353927752086
5.741562897562981,-5.679284788370133,5.656529179215432,-0.6518360490881341,0.5846546395024969,0.47170106405262957,-0.10385963503206667
5.790666645169258,-5.7188072884082795,5.703237907290459,-0.6428788359994339,0.7192905607516418,0.21725286731483623,0.14875847230018135
5.793061664700509,-5.74036480307579,5.736772273778915,-0.5395839799280426,0.7483749970312281,-0.06904345736617058,0.3794957093544652
5.790666645169258,-5.743957917094231,5.666110426783562,-0.3569809529985982,0.6677258673542198,-0.3452532025869075,0.5545331291868424
5.776294773817063,-5.791864154934883,5.5702979511022574,-0.12195049761027202,0.4890913282923111,-0.5708438059587997,0.6481165774151609
5.736772273778915,-5.838572883009911,5.498438594341279,0.13091115354017202,0.23868470837987182,-0.7126599387205328,0.6465351433659609
5.704435417056084,-5.801445402503014,5.493647970557213,0.36454930380071493,-0.046788505540581636,-0.74986391186983,0.5501079480638038
5.72479542195797,-5.728388535976411,5.548739851713181,0.5480339417903686,-0.33170773917934804,-0.6740186676157519,0.36786901217651247
5.736772273778915,-5.685272921919823,5.63018045604229,0.6462087118265055,-0.5608689857117073,-0.4995843236307134,0.13511397118244878
5.760725392699242,-5.702039812803268,5.636169174313546,0.6495182423407402,-0.7077184816624674,-0.2518960202295504,-0.11751169547105104
5.789469135403634,-5.72479542195797,5.675691674351692,0.5575106084358676,-0.7507114330156266,0.032775278784174466,-0.3529023192353835
5.771504150032998,-5.741562897562981,5.773899169564247,0.3837466612866587,-0.6834840311917907,0.3126940788277324,-0.5364797220056298
5.73198164999485,-5.7571322786808015,5.743957917094231,0.1536524756039975,-0.5159905001139555,0.5467597889181403,-0.6412475760227898
5.748748540878296,-5.796654778718949,5.540356698632241,-0.0990375591290954,-0.27290431020138933,0.700599321898991,-0.6518246616306634
5.760725392699242,-5.848154130578042,5.463706718087197,-0.34240347231888824,0.01722203571894395,0.7516150493185066,-0.5635051741267356
5.725992931723595,-5.8230035018920905,5.527182337045669,-0.5295943591891995,0.29829045984138447,0.6896309818836018,-0.39365178153903446
5.7188072884082795,-5.706830436587334,5.555926079750061,-0.6390900622739861,0.5356056103273144,0.5264478334791686,-0.1659614446599788
5.73198164999485,-5.697249189019203,5.53915860414505,-0.6547194782211861,0.694333500379855,0.2860568789306341,0.08610956453553872
5.775097264051437,-5.761922902464867,5.61820418894291,-0.574262203881519,0.7511498955479462,0.003662726855232228,0.3255508255916949
5.781085397601128,-5.7954572689533235,5.622994812726975,-0.4094916506609746,0.697739469061772,-0.2792591997158122,0.5171948575985951
5.777492283582688,-5.7727016597986225,5.652936065196991,-0.17870695736984013,0.5371167614071175,-0.5263025119835725,0.6344880407721847
5.763120412230492,-5.812224159836769,5.626587926745415,0.07342840642916232,0.3001732492142444,-0.6894981182221578,0.655054680582881
5.760725392699242,-5.8265960311889655,5.579879198670388,0.3148188534343243,0.01918541046720374,-0.7514729960615434,0.579490591586947
5.737969783544541,-5.801445402503014,5.514007975459099,0.509983060801009,-0.26457217234894004,-0.7031759592920499,0.4188823385967741
5.727191026210785,-5.754736674427987,5.557123589515687,0.6303461151121789,-0.5095461572287334,-0.5516298375719403,0.19680195912838208
5.737969783544541,-5.769108545780182,5.666110426783562,0.6581946474741711,-0.6797332622537047,-0.3190851145295359,-0.05410349256712549
5.733179159760476,-5.753539164662361,5.663714822530746,0.5893742371658982,-0.750208190053887,-0.03977442485219113,-0.2970583701376952
5.743957917094231,-5.747551031112671,5.638564193844796,0.429295807924938,-0.7084295747157294,0.2519744335713377,-0.5003414152282111
5.752341654896736,-5.8337822592258455,5.667307936549187,0.2090728310180956,-0.5621740891302659,0.4997243350317836,-0.6249195418753333
5.760725392699242,-5.839770392775536,5.646947931647301,-0.04184081017561102,-0.33345606801079436,0.6741010522016417,-0.6577569222222358
5.736772273778915,-5.807433536052704,5.546344832181931,-0.286645710451945,-0.0558079369334342,0.7496032118369808,-0.5939821004528809
5.7343766695261005,-5.814619764089585,5.522391713261604,-0.48935044382608556,0.23002776771882405,0.7150812232459617,-0.44303748528377035
5.72240040242672,-5.817014783620834,5.6086229413747795,-0.6202835453442194,0.4821466217458779,0.5755100262126248,-0.2270928625980724
5.715214174389839,-5.770306640267372,5.661319802999497,-0.6601538069909644,0.6634384997591346,0.3515040878641828,0.022162679609067405
