0.00047639266304347826,-2.1893045176630434e-05,5.385689113451087e-05,2.8460958729619564e-05,0.0004812091329823369,0.0003621109672214674,4.378609035326087e-05,-7.443635360054348e-06
0.0005832307235054347,-2.8023097826086955e-05,8.801004161005434e-05,5.035400390625e-05,0.0006024966032608695,0.0004588782269021739,6.699271824048912e-05,1.0508661684782609e-05
0.0004908420728600544,-2.977454144021739e-05,0.00011471955672554347,6.217624830163043e-05,0.0005311252759850543,0.0004711383322010869,8.187998896059783e-05,2.1017323369565217e-05
8.319357167119565e-05,-2.276876698369565e-05,0.00010202159052309782,5.911122197690217e-05,0.0001567542034646739,0.00026140295940896735,6.961988366168479e-05,2.057946246603261e-05
-0.0003279578167459239,-1.4449409816576086e-05,5.254330842391304e-05,4.291036854619565e-05,-0.00023907205332880435,-4.4661812160326084e-05,3.327742866847826e-05,1.7076575237771737e-05
-0.0005254330842391304,-6.56791355298913e-06,4.378609035326087e-07,1.8390157948369565e-05,-0.0004501210088315217,-0.00026359226392663043,-3.5028872282608694e-06,2.057946246603261e-05
-0.0005731599227241848,1.1384383491847825e-05,-3.283956776494565e-05,-3.065026324728261e-06,-0.0005153622834578804,-0.00036517599354619565,-2.8898819633152172e-05,2.583379330842391e-05
-0.0005429475203804347,3.4153150475543474e-05,-5.341903023097826e-05,-1.751443614130435e-05,-0.0004982857082201086,-0.00039319909137228257,-4.55375339673913e-05,1.970374065896739e-05
-0.0004339201554008152,4.115892493206522e-05,-6.918202275815218e-05,-2.714737601902174e-05,-0.0004093999448029891,-0.00036473813264266305,-5.5170473845108694e-05,5.6921917459239125e-06
-0.00026578156844429346,3.283956776494565e-05,-7.531207540760869e-05,-3.327742866847826e-05,-0.00027103589928668476,-0.00028548530910326087,-5.254330842391304e-05,-3.5028872282608694e-06
-8.100426715353261e-05,2.4520210597826086e-05,-6.524127462635869e-05,-3.327742866847826e-05,-0.00012172533118206522,-0.00017426863960597825,-3.8093898607336954e-05,-1.0070800781249999e-05
9.326437245244564e-05,1.663871433423913e-05,-4.641325577445652e-05,-2.583379330842391e-05,2.057946246603261e-05,-5.56083347486413e-05,-1.8390157948369565e-05,-1.4887270720108696e-05
0.0002469535495923913,3.940748131793478e-06,-2.8460958729619564e-05,-1.4449409816576086e-05,0.00016069495159646739,5.692191745923913e-05,0.0,-1.663871433423913e-05
0.0003669274371603261,-7.443635360054348e-06,-7.005774456521739e-06,-7.881496263586956e-06,0.00028636103091032606,0.00016419783882472825,1.4449409816576086e-05,-2.0141601562499998e-05
0.00044705598250679345,-2.0141601562499998e-05,2.0141601562499998e-05,-3.065026324728261e-06,0.00038794476052989127,0.0002627165421195652,2.4958071501358695e-05,-3.065026324728261e-05
0.0005228059188179347,-3.459101137907609e-05,5.166758661684782e-05,1.2260105298913043e-05,0.0004912799337635869,0.0003594838018002717,3.5466733186141305e-05,-3.590459408967391e-05
0.0005731599227241848,-3.896962041440217e-05,8.319357167119565e-05,3.3715289572010865e-05,0.0005635269828464674,0.0004382987644361413,5.210544752038043e-05,-2.583379330842391e-05
0.0004347958772078804,-3.065026324728261e-05,0.0001007080078125,4.378609035326087e-05,0.00044749384341032604,0.0004045834748641304,6.480341372282608e-05,-8.757218070652174e-06
5.341903023097826e-05,-2.057946246603261e-05,8.669645889945652e-05,3.590459408967391e-05,0.00010464875594429347,0.00019791312839673912,5.429475203804348e-05,0.0
-0.00031219482421875,-1.0508661684782609e-05,4.991614300271739e-05,2.057946246603261e-05,-0.00022593622622282608,-5.911122197690217e-05,2.364448879076087e-05,3.5028872282608694e-06
-0.00045668892238451085,0.0,1.357368800951087e-05,8.757218070652174e-06,-0.0003664895762567935,-0.00021498970363451086,-3.940748131793478e-06,1.2697966202445651e-05
-0.0005039778999660325,1.1822244395380435e-05,-1.8828018851902173e-05,0.0,-0.0004282279636548913,-0.0002955561098845109,-2.1017323369565217e-05,2.1017323369565217e-05
-0.0005455746858016304,2.583379330842391e-05,-5.035400390625e-05,-1.4887270720108696e-05,-0.00048777704653532605,-0.00036561385444972824,-3.590459408967391e-05,1.8390157948369565e-05
-0.0004439909561820652,3.5466733186141305e-05,-6.699271824048912e-05,-2.933668053668478e-05,-0.00042122218919836955,-0.00036079738451086954,-4.509967306385869e-05,1.357368800951087e-05
-0.00021586542544157607,3.196384595788043e-05,-6.261410920516304e-05,-3.065026324728261e-05,-0.00024038563603940216,-0.00025571076766304346,-3.984534222146739e-05,1.357368800951087e-05
-9.326437245244564e-05,2.320662788722826e-05,-5.5170473845108694e-05,-2.2330906080163042e-05,-0.00013923976732336957,-0.00016463569972826087,-3.1525985054347824e-05,1.1384383491847825e-05
-3.896962041440217e-05,1.926587975543478e-05,-4.991614300271739e-05,-1.5325131623641304e-05,-8.406929347826087e-05,-0.00010946522588315217,-2.583379330842391e-05,7.005774456521739e-06
0.00018477730129076085,1.4011548913043478e-05,-2.7585236922554347e-05,-1.7514436141304347e-06,0.0001256660793138587,2.8898819633152172e-05,-5.254330842391304e-06,1.0946522588315217e-05
0.00045449961786684783,2.627165421195652e-06,1.0508661684782609e-05,2.4082349694293478e-05,0.0003734953507133152,0.0002215576171875,2.8898819633152172e-05,1.7076575237771737e-05
0.0005166758661684783,-7.881496263586956e-06,3.940748131793478e-05,4.509967306385869e-05,0.0004391744862432065,0.0003178870159646739,4.772683848505435e-05,1.313582710597826e-05
0.0005219301970108695,-1.8828018851902173e-05,5.604619565217391e-05,4.772683848505435e-05,0.0004693868885869565,0.0003594838018002717,4.8602560292119564e-05,8.757218070652174e-07
0.0006077509341032609,-3.196384595788043e-05,8.144212805706522e-05,4.772683848505435e-05,0.0005823550016983695,0.0004426773734714674,5.867336107336956e-05,-4.378609035326087e-06
0.0005074807871942934,-3.896962041440217e-05,0.00010552447775135868,5.648405655570652e-05,0.0005109836744225544,0.00044223951256793474,7.399849269701087e-05,-4.378609035326087e-07
0.00010027014690896739,-3.021240234375e-05,9.501581606657609e-05,5.429475203804348e-05,0.00013354757557744565,0.00023425558338994564,6.173838739809782e-05,3.5028872282608694e-06
-0.00031963845957880434,-1.313582710597826e-05,4.991614300271739e-05,2.583379330842391e-05,-0.0002649058466372283,-6.086266559103261e-05,1.8390157948369565e-05,2.627165421195652e-06
-0.0005341903023097826,-2.627165421195652e-06,4.378609035326087e-07,-1.0508661684782609e-05,-0.0004658840013586956,-0.00027541450832201087,-2.4520210597826086e-05,-3.940748131793478e-06
-0.0005897986370584239,5.254330842391304e-06,-3.634245499320652e-05,-3.3715289572010865e-05,-0.0005175515879755435,-0.0003769982379415761,-4.991614300271739e-05,-1.4011548913043478e-05
-0.0005578347911005435,1.7076575237771737e-05,-6.655485733695651e-05,-4.8164699388586956e-05,-0.0004991614300271739,-0.000405021335767663,-6.217624830163043e-05,-2.1893045176630434e-05
-0.00045231031334918475,2.1893045176630434e-05,-8.713431980298913e-05,-5.692191745923913e-05,-0.0004234114937160326,-0.00038093898607336954,-6.56791355298913e-05,-2.4520210597826086e-05
-0.0002955561098845109,1.620085343070652e-05,-9.151292883831521e-05,-5.429475203804348e-05,-0.00030475118885869563,-0.0003086919369904891,-6.04248046875e-05,-2.0141601562499998e-05
-0.00011690886124320651,1.4011548913043478e-05,-8.012854534646738e-05,-4.1596785835597826e-05,-0.00016770072605298912,-0.000201416015625,-4.772683848505435e-05,-1.0946522588315217e-05
6.480341372282608e-05,1.4449409816576086e-05,-5.7359778362771735e-05,-2.1893045176630434e-05,-1.0508661684782609e-05,-7.531207540760869e-05,-2.4520210597826086e-05,-3.5028872282608694e-06
0.0002320662788722826,7.881496263586956e-06,-2.8898819633152172e-05,0.0,0.00016332211701766304,5.867336107336956e-05,2.1893045176630435e-06,1.313582710597826e-06
0.0003629866890285326,4.378609035326087e-07,1.313582710597826e-06,1.8390157948369565e-05,0.00031525985054347823,0.00018477730129076085,2.1893045176630434e-05,5.254330842391304e-06
0.00045712678328804345,-4.378609035326087e-06,3.021240234375e-05,3.327742866847826e-05,0.0004229736328125,0.00028592317000679347,3.853175951086956e-05,8.757218070652174e-06
0.0005503911557404891,-1.1384383491847825e-05,5.998694378396739e-05,4.378609035326087e-05,0.0005223680579144022,0.0003769982379415761,5.911122197690217e-05,1.4887270720108696e-05
0.0006051237686820652,-1.5762992527173912e-05,9.195078974184782e-05,5.254330842391304e-05,0.0005814792798913043,0.00045231031334918475,7.399849269701087e-05,2.364448879076087e-05
0.0004549374787703804,-1.4011548913043478e-05,0.00010946522588315217,5.385689113451087e-05,0.0004444288170855978,0.00041290283203125,7.180918817934783e-05,2.7585236922554347e-05
6.436555281929347e-05,-1.0070800781249999e-05,9.326437245244564e-05,3.590459408967391e-05,8.53828761888587e-05,0.00019966457201086956,5.166758661684782e-05,2.4082349694293478e-05
-0.00031175696331521736,-3.5028872282608694e-06,5.4732612941576086e-05,6.56791355298913e-06,-0.00025395932404891303,-6.480341372282608e-05,2.1017323369565217e-05,1.8390157948369565e-05
-0.0004803334111752717,3.940748131793478e-06,1.751443614130435e-05,-1.751443614130435e-05,-0.0004072106402853261,-0.00023600702700407608,-1.1822244395380435e-05,1.2260105298913043e-05
-0.0005425096594769022,7.443635360054348e-06,-1.926587975543478e-05,-3.634245499320652e-05,-0.0004790198284646739,-0.0003332121475883152,-4.247250764266304e-05,4.378609035326087e-06
-0.0005700948963994564,6.56791355298913e-06,-6.261410920516304e-05,-4.991614300271739e-05,-0.0005249952233355978,-0.00040151844853940214,-6.173838739809782e-05,-7.443635360054348e-06
-0.0004549374787703804,8.757218070652174e-06,-9.019934612771738e-05,-4.8164699388586956e-05,-0.00043085512907608696,-0.00038006326426630435,-6.04248046875e-05,-1.970374065896739e-05
-0.00023819633152173913,1.4887270720108696e-05,-8.53828761888587e-05,-3.678031589673913e-05,-0.00023994777513586957,-0.0002644679857336956,-4.641325577445652e-05,-2.1893045176630434e-05
-0.00012479035750679349,1.5762992527173912e-05,-7.137132727581522e-05,-3.021240234375e-05,-0.00014580768087635868,-0.0001764579441236413,-3.459101137907609e-05,-1.5762992527173912e-05
-6.217624830163043e-05,1.0946522588315217e-05,-6.217624830163043e-05,-2.627165421195652e-05,-8.888576341711956e-05,-0.00012654180112092392,-2.1893045176630434e-05,-1.357368800951087e-05
0.00016813858695652174,7.005774456521739e-06,-3.896962041440217e-05,-7.443635360054348e-06,0.0001313582710597826,1.4887270720108696e-05,8.757218070652174e-07,-1.2260105298913043e-05
0.0004396123471467391,3.5028872282608694e-06,-4.378609035326087e-07,1.970374065896739e-05,0.0003822525687839674,0.00021542756453804348,2.8023097826086955e-05,-4.816469938858695e-06
0.0005109836744225544,-4.378609035326087e-06,3.196384595788043e-05,3.678031589673913e-05,0.00045187245244565215,0.00032226562499999996,4.991614300271739e-05,0.0
0.0005328767195991848,-1.4449409816576086e-05,5.867336107336956e-05,4.685111667798913e-05,0.0004991614300271739,0.0003774360988451087,6.786844004755434e-05,2.627165421195652e-06
0.0006331468665081521,-2.1893045176630434e-05,8.888576341711956e-05,6.130052649456522e-05,0.0006169460130774456,0.0004693868885869565,8.100426715353261e-05,1.1384383491847825e-05
0.0005381310504415761,-2.8023097826086955e-05,0.00010552447775135868,6.655485733695651e-05,0.0005219301970108695,0.0004601918096127717,8.100426715353261e-05,2.057946246603261e-05
0.00013179613196331522,-2.8460958729619564e-05,9.10750679347826e-05,4.904042119565217e-05,0.00012697966202445651,0.00023863419242527173,5.911122197690217e-05,1.620085343070652e-05
-0.00028636103091032606,-1.7076575237771737e-05,5.385689113451087e-05,2.1893045176630434e-05,-0.00026140295940896735,-5.429475203804348e-05,2.1017323369565217e-05,3.940748131793478e-06
-0.0004982857082201086,2.627165421195652e-06,1.4011548913043478e-05,-2.1893045176630435e-06,-0.0004448666779891304,-0.00025395932404891303,-1.4449409816576086e-05,-4.378609035326087e-07
-0.0005517047384510869,2.276876698369565e-05,-1.926587975543478e-05,-2.364448879076087e-05,-0.0004886527683423912,-0.0003485372792119565,-3.721817680027174e-05,1.7514436141304347e-06
-0.0005267466669497282,3.196384595788043e-05,-4.904042119565217e-05,-3.984534222146739e-05,-0.0004742033585258152,-0.00037612251613451084,-5.341903023097826e-05,8.757218070652174e-07
-0.0004387366253396739,3.196384595788043e-05,-7.268490998641304e-05,-4.378609035326087e-05,-0.00040589705757472825,-0.00034941300101902175,-6.699271824048912e-05,-3.940748131793478e-06
-0.00029468038807744563,2.8898819633152172e-05,-7.618779721467391e-05,-3.8093898607336954e-05,-0.0002832960045855978,-0.0002771659519361413,-6.61169964334239e-05,-4.378609035326087e-06
-0.00012697966202445651,2.670951511548913e-05,-6.261410920516304e-05,-3.1525985054347824e-05,-0.00014361837635869565,-0.00017864724864130434,-4.685111667798913e-05,1.7514436141304347e-06
3.7656037703804346e-05,2.714737601902174e-05,-4.641325577445652e-05,-2.364448879076087e-05,-1.0070800781249999e-05,-7.137132727581522e-05,-2.320662788722826e-05,4.816469938858695e-06
0.0002018538765285326,1.970374065896739e-05,-2.5395932404891303e-05,-6.56791355298913e-06,0.00013486115828804346,4.247250764266304e-05,-2.1893045176630435e-06,1.313582710597826e-06
0.0003489751401154891,-4.378609035326087e-06,4.378609035326087e-07,1.4449409816576086e-05,0.0002828581436820652,0.00016244639521059782,2.057946246603261e-05,8.757218070652174e-07
0.0004540617569633152,-2.8460958729619564e-05,2.583379330842391e-05,2.8023097826086955e-05,0.00040064272673233695,0.00027366306470788044,4.4661812160326084e-05,3.940748131793478e-06
0.0005490775730298913,-3.283956776494565e-05,5.341903023097826e-05,3.8093898607336954e-05,0.0005101079526154891,0.0003743710725203804,6.086266559103261e-05,3.940748131793478e-06
0.0006077509341032609,-3.196384595788043e-05,8.363143257472826e-05,5.210544752038043e-05,0.0005810414189877717,0.00044705598250679345,7.093346637228261e-05,3.5028872282608694e-06
0.00045449961786684783,-3.7656037703804346e-05,9.58915378736413e-05,5.648405655570652e-05,0.0004488074261209239,0.00040151844853940214,7.180918817934783e-05,8.319357167119564e-06
5.7797639266304343e-05,-3.5466733186141305e-05,7.443635360054348e-05,3.8093898607336954e-05,8.625859799592391e-05,0.00018784232761548912,4.904042119565217e-05,1.0946522588315217e-05
-0.00030518904976222823,-1.8828018851902173e-05,3.327742866847826e-05,8.319357167119564e-06,-0.00024607782778532605,-7.180918817934783e-05,9.195078974184782e-06,2.627165421195652e-06
-0.0004488074261209239,-1.313582710597826e-06,-1.313582710597826e-06,-1.8828018851902173e-05,-0.0003796254033627717,-0.00023337986158288043,-2.0141601562499998e-05,-6.56791355298913e-06
-0.0005035400390625,7.443635360054348e-06,-2.714737601902174e-05,-4.072106402853261e-05,-0.00044136379076086955,-0.00031525985054347823,-3.634245499320652e-05,-9.63293987771739e-06
-0.0005473261294157609,1.2260105298913043e-05,-5.648405655570652e-05,-5.035400390625e-05,-0.0004934692382812499,-0.00037305748980978257,-4.991614300271739e-05,-1.1384383491847825e-05
-0.00044705598250679345,1.620085343070652e-05,-7.793924082880434e-05,-4.8164699388586956e-05,-0.0004072106402853261,-0.00035598091457201083,-5.648405655570652e-05,-1.663871433423913e-05
-0.00023119055706521737,1.8390157948369565e-05,-7.487421450407608e-05,-3.940748131793478e-05,-0.00022068189538043478,-0.00025308360224184784,-4.904042119565217e-05,-1.8390157948369565e-05
-0.00011296811311141304,1.8390157948369565e-05,-6.04248046875e-05,-2.8460958729619564e-05,-0.0001313582710597826,-0.00016857644786005433,-3.634245499320652e-05,-1.2260105298913043e-05
-4.1596785835597826e-05,1.8828018851902173e-05,-4.8164699388586956e-05,-1.8828018851902173e-05,-7.137132727581522e-05,-0.00010683806046195652,-2.2330906080163042e-05,-4.816469938858695e-06
0.00019528596297554347,1.5325131623641304e-05,-2.4520210597826086e-05,-4.816469938858695e-06,0.00015850564707880433,4.509967306385869e-05,4.378609035326087e-07,-4.378609035326087e-07
0.0004527481742527174,3.5028872282608694e-06,1.0946522588315217e-05,1.970374065896739e-05,0.00040677277938179344,0.00023994777513586957,3.065026324728261e-05,0.0
0.0004991614300271739,-7.005774456521739e-06,3.896962041440217e-05,4.291036854619565e-05,0.0004628189750339674,0.00033540145210597823,4.991614300271739e-05,8.757218070652174e-07
0.0005144865616508152,-1.313582710597826e-05,6.392769191576087e-05,5.429475203804348e-05,0.000501350734544837,0.00038575545601222824,6.04248046875e-05,6.56791355298913e-06
0.0006191353175951087,-2.0141601562499998e-05,9.939442510190217e-05,6.392769191576087e-05,0.0006156324303668478,0.0004742033585258152,7.662565811820652e-05,1.2260105298913043e-05
0.0005114215353260869,-2.2330906080163042e-05,0.00011866030485733696,7.049560546875e-05,0.0005144865616508152,0.0004580025050951087,8.363143257472826e-05,1.4887270720108696e-05
8.231784986413044e-05,-1.4887270720108696e-05,9.501581606657609e-05,5.692191745923913e-05,0.00011428169582201086,0.00023031483525815216,5.648405655570652e-05,1.7076575237771737e-05
-0.00034240722656249997,-7.005774456521739e-06,4.685111667798913e-05,2.1893045176630434e-05,-0.00027541450832201087,-6.918202275815218e-05,1.2260105298913043e-05,1.7076575237771737e-05
-0.0005407582158627717,-1.7514436141304347e-06,-2.627165421195652e-06,-1.0508661684782609e-05,-0.000465446140455163,-0.00027935525645380433,-1.970374065896739e-05,1.0508661684782609e-05
-0.0005801656971807065,5.254330842391304e-06,-4.991614300271739e-05,-2.4958071501358695e-05,-0.0005188651706861413,-0.0003818147078804348,-4.072106402853261e-05,0.0
-0.000541633937669837,1.2260105298913043e-05,-8.319357167119565e-05,-3.196384595788043e-05,-0.0005026643172554348,-0.0004098378057065217,-5.911122197690217e-05,-1.0070800781249999e-05
-0.00043304443359375,1.4011548913043478e-05,-9.326437245244564e-05,-4.1596785835597826e-05,-0.0004225357719089674,-0.00038093898607336954,-6.786844004755434e-05,-1.663871433423913e-05
-0.00026928445567255433,1.2260105298913043e-05,-8.976148522418478e-05,-4.55375339673913e-05,-0.00029599397078804347,-0.00030431332795516304,-6.173838739809782e-05,-1.926587975543478e-05
-9.195078974184782e-05,1.1822244395380435e-05,-8.012854534646738e-05,-3.590459408967391e-05,-0.00015412703804347825,-0.00019659954568614129,-4.641325577445652e-05,-1.751443614130435e-05
7.268490998641304e-05,1.4449409816576086e-05,-6.130052649456522e-05,-2.057946246603261e-05,-1.2697966202445651e-05,-7.881496263586956e-05,-2.977454144021739e-05,-1.0946522588315217e-05
0.00022068189538043478,1.620085343070652e-05,-3.5466733186141305e-05,-6.130052649456522e-06,0.0001361747409986413,4.1596785835597826e-05,-1.1384383491847825e-05,-6.130052649456522e-06
0.00034021792204483694,1.0508661684782609e-05,-7.881496263586956e-06,6.130052649456522e-06,0.00028373386548913044,0.00016507356063179347,1.0946522588315217e-05,-3.5028872282608694e-06
0.00043173085088315215,-2.1893045176630435e-06,2.4520210597826086e-05,2.320662788722826e-05,0.0004080863620923913,0.0002780416737432065,3.5466733186141305e-05,2.627165421195652e-06
0.0005350660241168478,-1.5325131623641304e-05,6.261410920516304e-05,4.334822944972826e-05,0.0005219301970108695,0.0003826904296875,5.7797639266304343e-05,1.4449409816576086e-05
0.0006011830205502717,-1.751443614130435e-05,9.632939877717391e-05,5.5170473845108694e-05,0.0005814792798913043,0.0004593160878057065,7.443635360054348e-05,2.2330906080163042e-05
0.0004488074261209239,-1.4887270720108696e-05,0.00010858950407608696,5.0791864809782605e-05,0.0004378609035326087,0.00041290283203125,7.487421450407608e-05,1.7952297044836957e-05
6.436555281929347e-05,-2.276876698369565e-05,9.063720703124999e-05,3.327742866847826e-05,8.976148522418478e-05,0.00019878885020380434,5.166758661684782e-05,4.378609035326087e-06
-0.0002797931173573369,-3.1088124150815216e-05,5.166758661684782e-05,6.130052649456522e-06,-0.00021586542544157607,-5.298116932744565e-05,1.4887270720108696e-05,-7.005774456521739e-06
-0.0004273522418478261,-1.970374065896739e-05,8.757218070652174e-06,-2.0141601562499998e-05,-0.0003480994183084239,-0.00020885965098505434,-1.620085343070652e-05,-7.443635360054348e-06
-0.0005066050653872282,1.7514436141304347e-06,-2.670951511548913e-05,-3.5466733186141305e-05,-0.00043085512907608696,-0.0003029997452445652,-3.50288722826087e-05,-3.940748131793478e-06
-0.0005578347911005435,1.2260105298913043e-05,-5.429475203804348e-05,-4.1596785835597826e-05,-0.0004960964037024456,-0.0003769982379415761,-4.55375339673913e-05,-4.816469938858695e-06
-0.0004426773734714674,1.4449409816576086e-05,-7.312277088994565e-05,-4.378609035326087e-05,-0.0004098378057065217,-0.00035773235818614127,-4.904042119565217e-05,-5.6921917459239125e-06
-0.00022418478260869564,1.8828018851902173e-05,-7.356063179347826e-05,-3.8093898607336954e-05,-0.00022593622622282608,-0.00024257494055706521,-4.2034646739130435e-05,2.1893045176630435e-06
-0.00012785538383152173,2.1893045176630434e-05,-5.911122197690217e-05,-2.627165421195652e-05,-0.00014405623726222825,-0.0001615706734035326,-3.065026324728261e-05,9.63293987771739e-06
-8.056640624999999e-05,1.970374065896739e-05,-4.378609035326087e-05,-1.663871433423913e-05,-9.851870329483695e-05,-0.000120849609375,-2.2330906080163042e-05,5.6921917459239125e-06
0.00014931056810461955,1.5325131623641304e-05,-2.1893045176630434e-05,-8.757218070652174e-07,0.00011296811311141304,1.357368800951087e-05,-2.627165421195652e-06,-1.313582710597826e-06
0.0004185950237771739,1.0508661684782609e-05,1.357368800951087e-05,2.583379330842391e-05,0.00035598091457201083,0.0002066703464673913,3.065026324728261e-05,5.254330842391304e-06
0.0004930313773777174,5.254330842391304e-06,4.685111667798913e-05,4.947828209918478e-05,0.0004286658245584239,0.00030956765879755434,5.341903023097826e-05,2.2330906080163042e-05
0.0005425096594769022,-4.378609035326087e-07,7.224704908288043e-05,6.217624830163043e-05,0.00048777704653532605,0.00037130604619565213,5.7797639266304343e-05,2.8898819633152172e-05
0.000672554347826087,-7.881496263586956e-06,9.851870329483695e-05,7.137132727581522e-05,0.0006038101859714674,0.0004685111667798913,6.699271824048912e-05,2.4958071501358695e-05
0.0005757870881453804,-1.8828018851902173e-05,0.00011253025220788043,7.180918817934783e-05,0.0004974099864130435,0.0004527481742527174,7.57499363111413e-05,2.364448879076087e-05
0.00013923976732336957,-2.670951511548913e-05,9.282651154891303e-05,4.8164699388586956e-05,0.00010289731233016304,0.00022068189538043478,5.56083347486413e-05,1.8828018851902173e-05
-0.0003082540760869565,-2.4520210597826086e-05,4.597539487092391e-05,6.56791355298913e-06,-0.00027847953464673914,-7.57499363111413e-05,9.63293987771739e-06,2.1893045176630435e-06
-0.00053375244140625,-1.8390157948369565e-05,-7.881496263586956e-06,-2.933668053668478e-05,-0.00047157619310461956,-0.0002776038128396739,-3.459101137907609e-05,-1.8828018851902173e-05
-0.00059417724609375,-1.2697966202445651e-05,-5.298116932744565e-05,-5.341903023097826e-05,-0.0005289359714673912,-0.00037568465523097824,-6.305197010869565e-05,-3.634245499320652e-05
-0.0005692191745923913,-5.254330842391304e-06,-8.056640624999999e-05,-6.918202275815218e-05,-0.0005039778999660325,-0.000405021335767663,-7.57499363111413e-05,-4.685111667798913e-05
-0.0004658840013586956,-2.627165421195652e-06,-9.326437245244564e-05,-7.750137992527173e-05,-0.00040852422299592387,-0.0003721817680027174,-7.706351902173912e-05,-4.947828209918478e-05
-0.0003104433806046195,-6.130052649456522e-06,-9.414009425951087e-05,-7.487421450407608e-05,-0.00027059803838315217,-0.00028636103091032606,-7.00577445652174e-05,-4.8602560292119564e-05
-0.0001414290718410326,-3.5028872282608694e-06,-7.969068444293477e-05,-5.648405655570652e-05,-0.00012128747027853261,-0.0001716414741847826,-5.210544752038043e-05,-4.0283203124999995e-05
4.378609035326087e-05,9.63293987771739e-06,-5.166758661684782e-05,-2.4520210597826086e-05,3.1088124150815216e-05,-4.509967306385869e-05,-2.320662788722826e-05,-1.8828018851902173e-05
0.0002421370796535326,1.751443614130435e-05,-2.1017323369565217e-05,6.130052649456522e-06,0.00019046949303668477,8.888576341711956e-05,4.816469938858695e-06,3.940748131793478e-06
0.00040020486582880436,1.0508661684782609e-05,5.6921917459239125e-06,2.977454144021739e-05,0.0003332121475883152,0.0002167411472486413,2.4958071501358695e-05,1.8828018851902173e-05
0.0004943449600883152,8.757218070652174e-07,3.240170686141304e-05,4.8602560292119564e-05,0.0004326065726902174,0.00031657343325407607,4.334822944972826e-05,2.670951511548913e-05
0.0005722842009171196,-6.130052649456522e-06,6.261410920516304e-05,6.130052649456522e-05,0.0005193030315896738,0.0003988912831182065,6.436555281929347e-05,3.021240234375e-05
0.0006090645168138586,-1.357368800951087e-05,9.501581606657609e-05,6.56791355298913e-05,0.0005700948963994564,0.00045625106148097826,7.662565811820652e-05,3.065026324728261e-05
0.0004339201554008152,-1.970374065896739e-05,0.00011077880859375,6.04248046875e-05,0.0004238493546195652,0.000394950534986413,6.56791355298913e-05,2.977454144021739e-05
2.1017323369565217e-05,-1.8390157948369565e-05,9.063720703124999e-05,4.334822944972826e-05,5.4732612941576086e-05,0.00016901430876358696,3.721817680027174e-05,2.670951511548913e-05
-0.00034941300101902175,-9.195078974184782e-06,4.4661812160326084e-05,1.8828018851902173e-05,-0.0002767280910326087,-9.151292883831521e-05,7.443635360054348e-06,2.4520210597826086e-05
-0.0004842741593070652,3.940748131793478e-06,-2.627165421195652e-06,-3.940748131793478e-06,-0.0004072106402853261,-0.00025308360224184784,-1.5762992527173912e-05,2.627165421195652e-05
-0.0005193030315896738,1.8390157948369565e-05,-3.984534222146739e-05,-2.1893045176630434e-05,-0.0004641325577445652,-0.0003415315047554348,-3.4153150475543474e-05,2.4958071501358695e-05
-0.0005411960767663043,2.8460958729619564e-05,-6.743057914402173e-05,-3.459101137907609e-05,-0.0005031021781589674,-0.00039626411769701084,-4.685111667798913e-05,1.357368800951087e-05
-0.00042166005010190214,2.627165421195652e-05,-8.056640624999999e-05,-3.853175951086956e-05,-0.0004032698921535326,-0.0003616731063179348,-5.0791864809782605e-05,1.313582710597826e-06
-0.00019572382387907607,1.313582710597826e-05,-7.750137992527173e-05,-3.590459408967391e-05,-0.00021498970363451086,-0.00025045643682065216,-4.509967306385869e-05,-8.319357167119564e-06
-8.012854534646738e-05,6.130052649456522e-06,-6.655485733695651e-05,-3.50288722826087e-05,-0.00013573688009510868,-0.00017864724864130434,-3.590459408967391e-05,-2.1893045176630434e-05
-2.1455184273097826e-05,6.130052649456522e-06,-5.429475203804348e-05,-3.3715289572010865e-05,-8.625859799592391e-05,-0.00012873110563858695,-2.8460958729619564e-05,-3.459101137907609e-05
0.00019134521484375,-3.5028872282608694e-06,-3.459101137907609e-05,-2.1893045176630434e-05,0.00013310971467391303,2.0141601562499998e-05,-1.7952297044836957e-05,-3.459101137907609e-05
0.00042166005010190214,-1.8828018851902173e-05,-2.627165421195652e-06,-5.254330842391304e-06,0.00037305748980978257,0.0002123625382133152,8.757218070652174e-07,-2.8460958729619564e-05
0.0004628189750339674,-2.7585236922554347e-05,3.283956776494565e-05,5.6921917459239125e-06,0.0004374230426290761,0.00031175696331521736,2.320662788722826e-05,-2.714737601902174e-05
0.0004930313773777174,-3.327742866847826e-05,6.61169964334239e-05,2.2330906080163042e-05,0.0004987235691236413,0.00037787395974864127,4.597539487092391e-05,-2.2330906080163042e-05
0.0005994315769361413,-3.590459408967391e-05,9.501581606657609e-05,5.0791864809782605e-05,0.0006230760657269022,0.0004750790803328804,6.918202275815218e-05,-3.065026324728261e-06
0.0004759548021399456,-2.8460958729619564e-05,0.00011165453040081521,7.049560546875e-05,0.0005162380052649456,0.00045449961786684783,7.925282353940217e-05,1.970374065896739e-05
5.4732612941576086e-05,-1.5762992527173912e-05,0.00010464875594429347,6.436555281929347e-05,0.00011734672214673912,0.0002263740871263587,6.04248046875e-05,3.196384595788043e-05
-0.00032664423403532607,-3.065026324728261e-06,6.830630095108695e-05,4.291036854619565e-05,-0.0002622786812160326,-6.173838739809782e-05,2.5395932404891303e-05,3.7656037703804346e-05
-0.0004886527683423912,7.443635360054348e-06,1.4449409816576086e-05,1.926587975543478e-05,-0.0004448666779891304,-0.00026140295940896735,-4.816469938858695e-06,3.721817680027174e-05
-0.000523681640625,1.4887270720108696e-05,-3.283956776494565e-05,-2.1893045176630435e-06,-0.0004995992909307065,-0.0003612352454144022,-2.933668053668478e-05,2.583379330842391e-05
-0.0004995992909307065,2.1893045176630434e-05,-5.954908288043478e-05,-2.1893045176630434e-05,-0.0004895284901494565,-0.00039100978685461954,-4.597539487092391e-05,1.4449409816576086e-05
-0.0004102756666100543,3.1088124150815216e-05,-7.00577445652174e-05,-3.5466733186141305e-05,-0.00040852422299592387,-0.0003590459408967391,-4.947828209918478e-05,1.2260105298913043e-05
-0.0002732252038043478,3.283956776494565e-05,-7.049560546875e-05,-3.721817680027174e-05,-0.00026884659476902173,-0.00027585236922554346,-4.4223951256793476e-05,1.0070800781249999e-05
-0.00012391463569972824,2.1893045176630434e-05,-5.998694378396739e-05,-2.714737601902174e-05,-0.00011909816576086957,-0.00016594928243885868,-3.50288722826087e-05,8.757218070652174e-07
2.670951511548913e-05,1.0070800781249999e-05,-4.247250764266304e-05,-1.2697966202445651e-05,1.620085343070652e-05,-5.298116932744565e-05,-1.7952297044836957e-05,-7.005774456521739e-06
0.00018740446671195653,4.816469938858695e-06,-2.1893045176630434e-05,0.0,0.00015325131623641303,5.7797639266304343e-05,3.065026324728261e-06,-6.56791355298913e-06
0.0003432829483695652,0.0,3.5028872282608694e-06,1.4011548913043478e-05,0.0002872367527173913,0.00017120361328124998,2.1017323369565217e-05,0.0
0.00046719758406929345,-7.005774456521739e-06,3.678031589673913e-05,2.977454144021739e-05,0.0004023941703464674,0.00028154456097146736,3.853175951086956e-05,5.254330842391304e-06
0.000576224949048913,-1.1384383491847825e-05,7.137132727581522e-05,4.4223951256793476e-05,0.0005184273097826087,0.0003888204823369565,5.7797639266304343e-05,7.881496263586956e-06
0.0006278925356657609,-1.313582710597826e-05,9.720512058423913e-05,5.210544752038043e-05,0.0005797278362771739,0.0004606296705163043,7.180918817934783e-05,1.0508661684782609e-05
0.0004527481742527174,-1.620085343070652e-05,0.00010289731233016304,4.8164699388586956e-05,0.0004199086064877717,0.0003971398395040761,6.874416185461957e-05,7.881496263586956e-06
3.590459408967391e-05,-1.620085343070652e-05,8.100426715353261e-05,2.714737601902174e-05,4.1596785835597826e-05,0.0001655114215353261,4.1596785835597826e-05,-8.757218070652174e-07
-0.00033583931300951083,-1.0946522588315217e-05,4.072106402853261e-05,-3.065026324728261e-06,-0.00028636103091032606,-9.282651154891303e-05,3.940748131793478e-06,-7.005774456521739e-06
-0.00047770624575407605,-4.816469938858695e-06,-4.378609035326087e-07,-2.933668053668478e-05,-0.0004120271102241848,-0.00024520210597826086,-2.2330906080163042e-05,-1.1384383491847825e-05
-0.0005228059188179347,4.378609035326087e-07,-3.50288722826087e-05,-4.4223951256793476e-05,-0.00046238111413043475,-0.0003262063731317935,-3.940748131793478e-05,-2.0141601562499998e-05
-0.0005490775730298913,6.56791355298913e-06,-6.786844004755434e-05,-5.035400390625e-05,-0.0004943449600883152,-0.0003822525687839674,-5.4732612941576086e-05,-2.4958071501358695e-05
-0.00043173085088315215,1.1822244395380435e-05,-9.063720703124999e-05,-4.597539487092391e-05,-0.0003936369522758152,-0.00035466733186141305,-5.998694378396739e-05,-1.7952297044836957e-05
-0.0002066703464673913,1.4449409816576086e-05,-8.713431980298913e-05,-3.1525985054347824e-05,-0.0002119246773097826,-0.00024563996688179346,-5.0791864809782605e-05,-6.130052649456522e-06
-8.406929347826087e-05,1.357368800951087e-05,-7.00577445652174e-05,-2.1455184273097826e-05,-0.00013179613196331522,-0.00016726286514945652,-3.896962041440217e-05,1.313582710597826e-06
-9.63293987771739e-06,1.1822244395380435e-05,-5.385689113451087e-05,-1.4887270720108696e-05,-6.655485733695651e-05,-0.00011165453040081521,-2.627165421195652e-05,4.378609035326087e-06
0.00022111975628396737,7.881496263586956e-06,-2.670951511548913e-05,3.940748131793478e-06,0.00017120361328124998,4.291036854619565e-05,-4.378609035326087e-06,8.757218070652174e-06
0.0004588782269021739,-3.5028872282608694e-06,1.0508661684782609e-05,2.670951511548913e-05,0.0004120271102241848,0.00023994777513586957,1.7952297044836957e-05,1.2260105298913043e-05
0.0004912799337635869,-1.663871433423913e-05,3.853175951086956e-05,3.634245499320652e-05,0.00045449961786684783,0.00033058498216711953,3.283956776494565e-05,1.0070800781249999e-05
0.000501350734544837,-1.970374065896739e-05,6.348983101222826e-05,4.597539487092391e-05,0.0004860256029211956,0.0003791875424592391,4.947828209918478e-05,1.1822244395380435e-05
0.0005884850543478261,-1.751443614130435e-05,9.720512058423913e-05,6.56791355298913e-05,0.0005880471934442934,0.0004632568359375,6.918202275815218e-05,2.276876698369565e-05
0.00046150539232336956,-2.2330906080163042e-05,0.00011559527853260869,7.093346637228261e-05,0.0004685111667798913,0.0004295415463654891,7.093346637228261e-05,2.670951511548913e-05
4.2034646739130435e-05,-2.4520210597826086e-05,9.326437245244564e-05,4.8164699388586956e-05,6.392769191576087e-05,0.00018959377122961955,4.597539487092391e-05,1.751443614130435e-05
-0.0003586080799932065,-1.313582710597826e-05,4.4223951256793476e-05,1.7076575237771737e-05,-0.0003082540760869565,-0.0001007080078125,1.0508661684782609e-05,8.757218070652174e-06
-0.000546012546705163,-3.5028872282608694e-06,-5.6921917459239125e-06,-8.319357167119564e-06,-0.000475516941236413,-0.0002986211362092391,-2.276876698369565e-05,1.7514436141304347e-06
-0.000576224949048913,-4.378609035326087e-07,-4.597539487092391e-05,-2.8898819633152172e-05,-0.0005149244225543478,-0.0003940748131793478,-4.641325577445652e-05,-4.378609035326087e-06
-0.000521492336107337,1.0508661684782609e-05,-7.180918817934783e-05,-4.072106402853261e-05,-0.00048646346382472827,-0.0004076485011888587,-5.604619565217391e-05,-2.1893045176630435e-06
-0.00040677277938179344,2.8898819633152172e-05,-8.231784986413044e-05,-4.291036854619565e-05,-0.0003888204823369565,-0.00035466733186141305,-5.7359778362771735e-05,4.378609035326087e-07
-0.0002522078804347826,3.50288722826087e-05,-8.275571076766304e-05,-4.247250764266304e-05,-0.00024826713230298913,-0.0002622786812160326,-5.5170473845108694e-05,-8.319357167119564e-06
-8.450715438179348e-05,2.933668053668478e-05,-7.137132727581522e-05,-3.853175951086956e-05,-0.00010683806046195652,-0.0001554406207540761,-4.2034646739130435e-05,-1.4011548913043478e-05
7.837710173233695e-05,2.1893045176630434e-05,-4.55375339673913e-05,-2.4520210597826086e-05,3.283956776494565e-05,-4.2034646739130435e-05,-2.1893045176630434e-05,-7.443635360054348e-06
0.00023600702700407608,1.357368800951087e-05,-1.5762992527173912e-05,-1.313582710597826e-06,0.00018477730129076085,8.319357167119565e-05,-3.940748131793478e-06,-1.7514436141304347e-06
0.0003695546025815217,5.6921917459239125e-06,1.0508661684782609e-05,2.1455184273097826e-05,0.00032182776409646737,0.0002071082073709239,1.663871433423913e-05,4.378609035326087e-06
0.0004680733058763587,1.7514436141304347e-06,4.1596785835597826e-05,3.196384595788043e-05,0.00042122218919836955,0.00031219482421875,4.247250764266304e-05,1.4449409816576086e-05
0.0005626512610394022,-2.627165421195652e-06,7.487421450407608e-05,3.50288722826087e-05,0.0005201787533967391,0.00040852422299592387,6.655485733695651e-05,1.5325131623641304e-05
0.0006016208814538043,-1.2697966202445651e-05,0.00010027014690896739,4.597539487092391e-05,0.000576224949048913,0.00047332763671875,8.319357167119565e-05,1.0946522588315217e-05
0.0004133406929347826,-2.320662788722826e-05,0.00010640019955842391,5.7359778362771735e-05,0.0004177193019701087,0.00040677277938179344,7.969068444293477e-05,1.2697966202445651e-05
1.0946522588315217e-05,-2.670951511548913e-05,8.363143257472826e-05,4.685111667798913e-05,4.685111667798913e-05,0.00017996083135190217,4.8602560292119564e-05,1.4449409816576086e-05
-0.00032007632048233693,-1.970374065896739e-05,4.0283203124999995e-05,2.0141601562499998e-05,-0.00026359226392663043,-7.049560546875e-05,1.0508661684782609e-05,1.0070800781249999e-05
-0.0004343580163043478,-9.63293987771739e-06,-8.757218070652174e-07,-2.627165421195652e-06,-0.0003818147078804348,-0.00022943911345108694,-1.4449409816576086e-05,4.816469938858695e-06
-0.00047989555027173913,-3.5028872282608694e-06,-3.4153150475543474e-05,-2.276876698369565e-05,-0.0004488074261209239,-0.0003283956776494565,-3.3715289572010865e-05,-1.313582710597826e-06
-0.0005101079526154891,0.0,-6.261410920516304e-05,-4.115892493206522e-05,-0.0004974099864130435,-0.0003918855086616848,-5.210544752038043e-05,-9.195078974184782e-06
-0.00039582625679347825,7.443635360054348e-06,-8.012854534646738e-05,-4.685111667798913e-05,-0.00039538839588994565,-0.00035598091457201083,-6.04248046875e-05,-1.4449409816576086e-05
-0.00019835098930027172,1.7076575237771737e-05,-7.750137992527173e-05,-4.1596785835597826e-05,-0.00021061109459918477,-0.00023644488790760867,-5.604619565217391e-05,-1.1822244395380435e-05
-0.00012303891389266303,2.627165421195652e-05,-5.954908288043478e-05,-3.721817680027174e-05,-0.0001401154891304348,-0.0001563163425611413,-4.685111667798913e-05,-4.816469938858695e-06
-7.312277088994565e-05,2.8460958729619564e-05,-4.2034646739130435e-05,-3.021240234375e-05,-9.151292883831521e-05,-0.00010990308678668478,-3.240170686141304e-05,8.757218070652174e-07
0.00016200853430706522,2.0141601562499998e-05,-2.2330906080163042e-05,-1.2260105298913043e-05,0.00012697966202445651,2.5395932404891303e-05,-1.0070800781249999e-05,4.816469938858695e-06
0.00040589705757472825,9.195078974184782e-06,7.005774456521739e-06,8.757218070652174e-06,0.00035510519276494564,0.00020579462466032607,1.2260105298913043e-05,7.443635360054348e-06
0.00045099673063858696,1.313582710597826e-06,3.678031589673913e-05,2.583379330842391e-05,0.0004120271102241848,0.00029686969259510866,3.1525985054347824e-05,8.757218070652174e-06
0.0005017885954483695,-7.443635360054348e-06,6.086266559103261e-05,4.4661812160326084e-05,0.00047683052394701086,0.0003590459408967391,5.429475203804348e-05,1.313582710597826e-05
0.0006261410920516304,-1.970374065896739e-05,8.932362432065217e-05,6.173838739809782e-05,0.000598555855129076,0.0004536238960597826,7.487421450407608e-05,1.926587975543478e-05
0.0004952206818953804,-2.933668053668478e-05,0.00010946522588315217,6.217624830163043e-05,0.00047639266304347826,0.0004238493546195652,7.268490998641304e-05,1.8390157948369565e-05
5.210544752038043e-05,-2.977454144021739e-05,9.063720703124999e-05,4.597539487092391e-05,6.961988366168479e-05,0.00018346371858016304,4.4661812160326084e-05,1.0070800781249999e-05
-0.00035247802734374997,-2.1455184273097826e-05,3.721817680027174e-05,2.276876698369565e-05,-0.0002986211362092391,-0.00010727592136548913,8.319357167119564e-06,3.065026324728261e-06
-0.0005302495541779891,-1.2260105298913043e-05,-1.620085343070652e-05,-1.7514436141304347e-06,-0.0004641325577445652,-0.00029686969259510866,-2.320662788722826e-05,-1.313582710597826e-06
-0.000561775539232337,-6.56791355298913e-06,-5.5170473845108694e-05,-2.670951511548913e-05,-0.0005052914826766304,-0.00038137684697690214,-4.641325577445652e-05,-9.63293987771739e-06
-0.0005175515879755435,-1.313582710597826e-06,-7.969068444293477e-05,-4.1596785835597826e-05,-0.0004781441066576087,-0.0003988912831182065,-5.692191745923913e-05,-1.620085343070652e-05
-0.0004045834748641304,3.940748131793478e-06,-8.757218070652174e-05,-4.247250764266304e-05,-0.0003835661514945652,-0.0003568566363790761,-5.692191745923913e-05,-1.7076575237771737e-05
-0.00024476424507472827,9.195078974184782e-06,-8.187998896059783e-05,-3.459101137907609e-05,-0.00025045643682065216,-0.00026621942934782606,-4.947828209918478e-05,-1.4449409816576086e-05
-7.180918817934783e-05,1.4887270720108696e-05,-6.699271824048912e-05,-2.276876698369565e-05,-0.00010640019955842391,-0.00015368917713994565,-3.4153150475543474e-05,-8.757218070652174e-06
9.939442510190217e-05,1.7952297044836957e-05,-4.2034646739130435e-05,-7.881496263586956e-06,4.904042119565217e-05,-3.240170686141304e-05,-1.2697966202445651e-05,-4.378609035326087e-07
0.00026140295940896735,1.2260105298913043e-05,-1.1384383491847825e-05,5.254330842391304e-06,0.00020885965098505434,9.764298148777174e-05,1.0070800781249999e-05,3.065026324728261e-06
0.00039100978685461954,1.313582710597826e-06,1.620085343070652e-05,1.4887270720108696e-05,0.0003340878693953804,0.00021936831266983694,2.977454144021739e-05,4.378609035326087e-06
0.0004842741593070652,-5.254330842391304e-06,4.115892493206522e-05,2.4958071501358695e-05,0.0004234114937160326,0.00031438412873641304,4.509967306385869e-05,6.56791355298913e-06
0.0005696570354959239,-1.0070800781249999e-05,6.830630095108695e-05,3.590459408967391e-05,0.0005193030315896738,0.00040064272673233695,5.954908288043478e-05,7.005774456521739e-06
0.0005915500806725543,-2.2330906080163042e-05,9.151292883831521e-05,4.509967306385869e-05,0.0005665920091711956,0.0004632568359375,7.224704908288043e-05,3.5028872282608694e-06
0.0003888204823369565,-3.50288722826087e-05,9.58915378736413e-05,4.509967306385869e-05,0.0003975777004076087,0.0003971398395040761,6.918202275815218e-05,0.0
-2.4520210597826086e-05,-2.8898819633152172e-05,7.356063179347826e-05,3.021240234375e-05,2.1893045176630434e-05,0.00016244639521059782,4.1596785835597826e-05,-1.313582710597826e-06
-0.00037130604619565213,-8.319357167119564e-06,3.721817680027174e-05,7.005774456521739e-06,-0.00029424252717391304,-9.58915378736413e-05,4.816469938858695e-06,-4.378609035326087e-07
-0.0004947828209918478,4.816469938858695e-06,3.065026324728261e-06,-1.2260105298913043e-05,-0.0004142164147418478,-0.0002473914104959239,-2.364448879076087e-05,4.378609035326087e-07
-0.0005341903023097826,7.443635360054348e-06,-3.021240234375e-05,-2.583379330842391e-05,-0.00047201405400815216,-0.0003332121475883152,-4.378609035326087e-05,0.0
-0.0005503911557404891,1.4011548913043478e-05,-6.261410920516304e-05,-3.634245499320652e-05,-0.0005149244225543478,-0.0003936369522758152,-5.692191745923913e-05,-2.627165421195652e-06
-0.00042078432829483696,2.1893045176630434e-05,-8.012854534646738e-05,-4.509967306385869e-05,-0.0004203464673913043,-0.0003686788807744565,-5.998694378396739e-05,-7.005774456521739e-06
-0.0002062324855638587,2.0141601562499998e-05,-7.925282353940217e-05,-4.509967306385869e-05,-0.00024082349694293478,-0.00026578156844429346,-5.254330842391304e-05,-1.0946522588315217e-05
-0.00011034094769021739,1.4449409816576086e-05,-7.137132727581522e-05,-3.3715289572010865e-05,-0.00015281345533288044,-0.00018477730129076085,-4.247250764266304e-05,-1.0946522588315217e-05
-3.7656037703804346e-05,1.2697966202445651e-05,-5.648405655570652e-05,-1.5325131623641304e-05,-7.399849269701087e-05,-0.00011515741762907608,-2.977454144021739e-05,-4.816469938858695e-06
0.00021280039911684783,1.1822244395380435e-05,-2.5395932404891303e-05,4.816469938858695e-06,0.00016419783882472825,3.853175951086956e-05,-7.443635360054348e-06,4.378609035326087e-06
0.0004593160878057065,4.378609035326087e-07,1.2260105298913043e-05,2.320662788722826e-05,0.0003896962041440217,0.00022111975628396737,1.970374065896739e-05,1.1822244395380435e-05
0.0004987235691236413,-1.751443614130435e-05,3.8093898607336954e-05,3.590459408967391e-05,0.00043610945991847826,0.0003174491550611413,3.896962041440217e-05,1.1822244395380435e-05
0.0005333145805027174,-2.8898819633152172e-05,5.692191745923913e-05,4.55375339673913e-05,0.0005000371518342391,0.0003883826214334239,5.298116932744565e-05,1.0508661684782609e-05
0.0006313954228940218,-2.977454144021739e-05,8.231784986413044e-05,5.604619565217391e-05,0.000620886761209239,0.0004794576893682065,7.093346637228261e-05,1.7076575237771737e-05
0.00048164699388586956,-2.8898819633152172e-05,0.00010027014690896739,5.823550016983695e-05,0.00048690132472826086,0.0004374230426290761,7.706351902173912e-05,2.1893045176630434e-05
4.597539487092391e-05,-2.583379330842391e-05,8.844790251358695e-05,4.2034646739130435e-05,7.224704908288043e-05,0.0001961616847826087,5.166758661684782e-05,1.0070800781249999e-05
-0.00033540145210597823,-1.7952297044836957e-05,4.8164699388586956e-05,1.2260105298913043e-05,-0.00028592317000679347,-8.450715438179348e-05,1.0070800781249999e-05,-6.130052649456522e-06
-0.0004995992909307065,-1.357368800951087e-05,4.378609035326087e-07,-1.663871433423913e-05,-0.0004400502080502717,-0.00026840873386548914,-2.4520210597826086e-05,-1.2697966202445651e-05
-0.0005398824940557065,-7.005774456521739e-06,-3.7656037703804346e-05,-3.678031589673913e-05,-0.00048690132472826086,-0.00036035952360733694,-4.8602560292119564e-05,-1.5762992527173912e-05
-0.0005184273097826087,1.1384383491847825e-05,-6.348983101222826e-05,-4.8164699388586956e-05,-0.00047989555027173913,-0.0003896962041440217,-6.130052649456522e-05,-2.057946246603261e-05
-0.0004273522418478261,2.583379330842391e-05,-8.056640624999999e-05,-5.341903023097826e-05,-0.00040020486582880436,-0.00036035952360733694,-5.998694378396739e-05,-2.057946246603261e-05
-0.0002780416737432065,2.1455184273097826e-05,-8.406929347826087e-05,-4.685111667798913e-05,-0.0002644679857336956,-0.0002824202827785326,-4.728897758152174e-05,-1.357368800951087e-05
-0.00010815164317255435,1.7076575237771737e-05,-7.049560546875e-05,-3.1525985054347824e-05,-0.00011822244395380434,-0.00017864724864130434,-3.240170686141304e-05,-3.940748131793478e-06
5.823550016983695e-05,2.4082349694293478e-05,-4.772683848505435e-05,-1.8390157948369565e-05,1.7076575237771737e-05,-6.261410920516304e-05,-1.7952297044836957e-05,1.7514436141304347e-06
0.00022111975628396737,2.7585236922554347e-05,-2.0141601562499998e-05,-5.254330842391304e-06,0.00015500275985054347,5.823550016983695e-05,-8.757218070652174e-07,4.816469938858695e-06
0.0003612352454144022,1.7952297044836957e-05,7.005774456521739e-06,1.357368800951087e-05,0.0002867988918138587,0.00017295505689538042,2.057946246603261e-05,6.130052649456522e-06
0.00046632186226222826,1.313582710597826e-06,3.196384595788043e-05,3.459101137907609e-05,0.0004019563094429348,0.0002771659519361413,4.2034646739130435e-05,5.254330842391304e-06
0.0005683434527853261,-1.4449409816576086e-05,5.911122197690217e-05,5.385689113451087e-05,0.0005197408924932065,0.0003866311778192935,6.130052649456522e-05,4.816469938858695e-06
0.0006095023777173913,-2.320662788722826e-05,8.976148522418478e-05,6.743057914402173e-05,0.000578414253566576,0.00046675972316576086,7.443635360054348e-05,1.0070800781249999e-05
0.00041158924932065214,-2.5395932404891303e-05,0.00010333517323369564,6.392769191576087e-05,0.00041071352751358695,0.0004032698921535326,6.56791355298913e-05,1.663871433423913e-05
-3.940748131793478e-06,-2.320662788722826e-05,8.363143257472826e-05,3.634245499320652e-05,3.1088124150815216e-05,0.00016375997792119566,3.3715289572010865e-05,1.5325131623641304e-05
-0.00034065578294836953,-1.4449409816576086e-05,4.1596785835597826e-05,4.378609035326087e-07,-0.0002876746136209239,-9.808084239130435e-05,2.1893045176630435e-06,8.757218070652174e-06
-0.0004628189750339674,2.1893045176630435e-06,-3.5028872282608694e-06,-2.1017323369565217e-05,-0.00040852422299592387,-0.0002473914104959239,-2.057946246603261e-05,3.065026324728261e-06
-0.0005197408924932065,1.620085343070652e-05,-4.334822944972826e-05,-2.977454144021739e-05,-0.00046675972316576086,-0.0003257685122282609,-4.641325577445652e-05,-4.378609035326087e-06
-0.0005407582158627717,1.663871433423913e-05,-6.961988366168479e-05,-3.940748131793478e-05,-0.0004974099864130435,-0.0003787496815557065,-7.00577445652174e-05,-1.5762992527173912e-05
-0.00040020486582880436,1.0070800781249999e-05,-7.443635360054348e-05,-4.55375339673913e-05,-0.00038312829059103257,-0.0003437208092730978,-6.918202275815218e-05,-2.5395932404891303e-05
-0.00018346371858016304,8.319357167119564e-06,-6.305197010869565e-05,-3.896962041440217e-05,-0.000201416015625,-0.00023381772248641302,-4.772683848505435e-05,-2.670951511548913e-05
-8.976148522418478e-05,9.63293987771739e-06,-5.341903023097826e-05,-3.021240234375e-05,-0.00013354757557744565,-0.00015806778617527174,-2.8898819633152172e-05,-1.663871433423913e-05
-1.2260105298913043e-05,6.130052649456522e-06,-4.641325577445652e-05,-2.276876698369565e-05,-6.173838739809782e-05,-9.019934612771738e-05,-1.5325131623641304e-05,-2.1893045176630435e-06
0.00023907205332880435,-3.5028872282608694e-06,-2.1017323369565217e-05,-3.065026324728261e-06,0.00018871804942255434,7.750137992527173e-05,5.6921917459239125e-06,3.940748131793478e-06
0.0004785819675611413,-1.2697966202445651e-05,1.7952297044836957e-05,2.320662788722826e-05,0.0004172814410665761,0.00026403012483016303,3.065026324728261e-05,6.56791355298913e-06
0.0005175515879755435,-1.663871433423913e-05,4.597539487092391e-05,4.072106402853261e-05,0.0004549374787703804,0.0003389043393342391,4.8164699388586956e-05,1.1822244395380435e-05
0.0005600240956182065,-1.8828018851902173e-05,6.655485733695651e-05,5.035400390625e-05,0.0005153622834578804,0.0003896962041440217,6.480341372282608e-05,1.7952297044836957e-05
0.0006585427989130435,-2.4958071501358695e-05,9.54536769701087e-05,5.56083347486413e-05,0.0006300818401834239,0.00047683052394701086,8.144212805706522e-05,2.1893045176630434e-05
0.00048777704653532605,-3.327742866847826e-05,0.00011077880859375,4.904042119565217e-05,0.0004785819675611413,0.00043216871178668474,7.969068444293477e-05,1.663871433423913e-05
3.5028872282608694e-06,-3.459101137907609e-05,8.801004161005434e-05,2.977454144021739e-05,3.984534222146739e-05,0.0001720793350883152,4.991614300271739e-05,1.7514436141304347e-06
-0.0004291036854619565,-2.4958071501358695e-05,4.115892493206522e-05,6.56791355298913e-06,-0.00034021792204483694,-0.0001313582710597826,6.56791355298913e-06,-6.56791355298913e-06
-0.0006090645168138586,-1.1384383491847825e-05,-8.319357167119564e-06,-1.4449409816576086e-05,-0.0004995992909307065,-0.00031963845957880434,-2.933668053668478e-05,-4.378609035326087e-06
-0.0006213246221127717,-2.627165421195652e-06,-5.254330842391304e-05,-3.327742866847826e-05,-0.0005254330842391304,-0.0003980155613111413,-5.0791864809782605e-05,-4.816469938858695e-06
-0.0005543319038722826,2.1893045176630435e-06,-8.012854534646738e-05,-4.509967306385869e-05,-0.00048777704653532605,-0.0004098378057065217,-5.998694378396739e-05,-7.881496263586956e-06
-0.0004199086064877717,1.1384383491847825e-05,-8.801004161005434e-05,-4.991614300271739e-05,-0.0003918855086616848,-0.0003629866890285326,-6.04248046875e-05,-3.5028872282608694e-06
-0.0002430128014605978,1.970374065896739e-05,-8.625859799592391e-05,-5.210544752038043e-05,-0.0002579000721807065,-0.00027147376019021736,-5.429475203804348e-05,8.757218070652174e-07
-7.399849269701087e-05,1.7076575237771737e-05,-7.837710173233695e-05,-4.772683848505435e-05,-0.00011690886124320651,-0.0001655114215353261,-4.0283203124999995e-05,-3.065026324728261e-06
7.312277088994565e-05,1.0508661684782609e-05,-6.086266559103261e-05,-2.933668053668478e-05,2.5395932404891303e-05,-5.254330842391304e-05,-2.057946246603261e-05,-7.881496263586956e-06
0.00021849259086277172,7.443635360054348e-06,-3.283956776494565e-05,-3.940748131793478e-06,0.0001764579441236413,7.399849269701087e-05,-4.378609035326087e-07,-8.757218070652174e-06
0.00034985086192255435,-1.7514436141304347e-06,1.7514436141304347e-06,1.7076575237771737e-05,0.0003161355723505435,0.00019835098930027172,2.1455184273097826e-05,-9.63293987771739e-06
0.0004558132005774456,-1.5325131623641304e-05,3.940748131793478e-05,3.634245499320652e-05,0.0004291036854619565,0.00030168616253396736,4.8164699388586956e-05,-8.319357167119564e-06
0.0005692191745923913,-1.5325131623641304e-05,7.487421450407608e-05,5.5170473845108694e-05,0.0005376931895380435,0.0003993291440217391,7.049560546875e-05,2.627165421195652e-06
0.0006309575619904891,-9.195078974184782e-06,0.00010202159052309782,6.699271824048912e-05,0.0005819171407948369,0.00046457041864809783,8.363143257472826e-05,2.2330906080163042e-05
0.00045625106148097826,-1.2260105298913043e-05,0.00010990308678668478,5.954908288043478e-05,0.0003971398395040761,0.0003892583432404891,7.925282353940217e-05,3.5466733186141305e-05
5.254330842391304e-05,-1.5762992527173912e-05,8.669645889945652e-05,3.065026324728261e-05,1.313582710597826e-05,0.00015062415081521738,4.728897758152174e-05,2.5395932404891303e-05
-0.0002924910835597826,-1.1384383491847825e-05,3.940748131793478e-05,-6.130052649456522e-06,-0.00028460958729619563,-9.676725968070652e-05,-8.757218070652174e-07,-1.313582710597826e-06
-0.00043610945991847826,-1.0946522588315217e-05,-7.005774456521739e-06,-3.5466733186141305e-05,-0.0003774360988451087,-0.00023119055706521737,-3.7656037703804346e-05,-2.5395932404891303e-05
-0.0005201787533967391,-1.4011548913043478e-05,-4.641325577445652e-05,-5.385689113451087e-05,-0.0004304172681725543,-0.0003078162151834239,-5.4732612941576086e-05,-3.590459408967391e-05
-0.0005775385317595108,-5.6921917459239125e-06,-7.750137992527173e-05,-6.173838739809782e-05,-0.0004833984375,-0.0003739332116168478,-6.130052649456522e-05,-3.5466733186141305e-05
-0.0004628189750339674,9.63293987771739e-06,-8.844790251358695e-05,-5.254330842391304e-05,-0.00039670197860054344,-0.00035598091457201083,-5.867336107336956e-05,-3.1088124150815216e-05
-0.0002421370796535326,1.751443614130435e-05,-8.100426715353261e-05,-3.50288722826087e-05,-0.0002263740871263587,-0.00025001857591711957,-4.685111667798913e-05,-2.320662788722826e-05
-0.00013048254925271738,1.7952297044836957e-05,-7.224704908288043e-05,-2.4958071501358695e-05,-0.00015193773352581522,-0.00017470650050951088,-3.240170686141304e-05,-1.1822244395380435e-05
-4.378609035326087e-05,1.8390157948369565e-05,-5.692191745923913e-05,-1.5325131623641304e-05,-7.137132727581522e-05,-0.00011559527853260869,-1.663871433423913e-05,-2.1893045176630435e-06
0.00021411398182744564,1.7076575237771737e-05,-2.1893045176630434e-05,9.195078974184782e-06,0.0001764579441236413,4.597539487092391e-05,7.005774456521739e-06,2.627165421195652e-06
0.00046457041864809783,1.2697966202445651e-05,1.8390157948369565e-05,3.7656037703804346e-05,0.0003975777004076087,0.00023644488790760867,3.065026324728261e-05,1.0946522588315217e-05
0.0005122972571331521,7.443635360054348e-06,4.597539487092391e-05,5.1229725713315214e-05,0.000435233738111413,0.00031657343325407607,4.247250764266304e-05,2.276876698369565e-05
0.0005587105129076087,-3.065026324728261e-06,7.224704908288043e-05,6.130052649456522e-05,0.0005004750127377717,0.00037130604619565213,5.7797639266304343e-05,2.8898819633152172e-05
0.0006563534943953804,-2.057946246603261e-05,0.0001007080078125,7.57499363111413e-05,0.0006147567085597826,0.0004632568359375,8.275571076766304e-05,2.714737601902174e-05
0.0004934692382812499,-2.8023097826086955e-05,0.00010815164317255435,7.57499363111413e-05,0.0004636946968410326,0.00042209791100543474,8.53828761888587e-05,2.627165421195652e-05
4.2034646739130435e-05,-2.057946246603261e-05,8.494501528532609e-05,5.166758661684782e-05,4.115892493206522e-05,0.00017251719599184782,5.1229725713315214e-05,2.7585236922554347e-05
-0.00035554305366847824,-1.0070800781249999e-05,4.55375339673913e-05,1.663871433423913e-05,-0.0003156977114470109,-0.00011077880859375,8.757218070652174e-06,2.2330906080163042e-05
-0.0005355038850203804,2.1893045176630435e-06,1.7514436141304347e-06,-1.663871433423913e-05,-0.00047201405400815216,-0.00028898819633152174,-2.364448879076087e-05,7.881496263586956e-06
-0.0005722842009171196,1.751443614130435e-05,-3.853175951086956e-05,-4.4223951256793476e-05,-0.0005149244225543478,-0.00037261962890624997,-5.210544752038043e-05,-6.130052649456522e-06
-0.0005249952233355978,2.4958071501358695e-05,-6.699271824048912e-05,-5.7359778362771735e-05,-0.0004882149074388587,-0.00039538839588994565,-7.093346637228261e-05,-1.5325131623641304e-05
-0.00041290283203125,2.057946246603261e-05,-8.100426715353261e-05,-5.911122197690217e-05,-0.00039319909137228257,-0.0003612352454144022,-7.093346637228261e-05,-2.364448879076087e-05
-0.00026840873386548914,1.5325131623641304e-05,-8.406929347826087e-05,-5.429475203804348e-05,-0.0002618408203125,-0.00027847953464673914,-5.604619565217391e-05,-2.933668053668478e-05
-0.00010902736497961956,1.1822244395380435e-05,-7.57499363111413e-05,-4.072106402853261e-05,-0.00011953602666440217,-0.00016419783882472825,-4.1596785835597826e-05,-2.5395932404891303e-05
6.699271824048912e-05,1.0070800781249999e-05,-5.1229725713315214e-05,-1.8828018851902173e-05,3.590459408967391e-05,-3.590459408967391e-05,-2.670951511548913e-05,-1.620085343070652e-05
0.0002430128014605978,7.443635360054348e-06,-1.7076575237771737e-05,3.5028872282608694e-06,0.00019835098930027172,9.414009425951087e-05,-2.1893045176630435e-06,-8.319357167119564e-06
0.0003796254033627717,0.0,1.0508661684782609e-05,1.970374065896739e-05,0.0003340878693953804,0.0002123625382133152,2.364448879076087e-05,-8.757218070652174e-07
0.00047332763671875,-1.2697966202445651e-05,3.240170686141304e-05,3.327742866847826e-05,0.0004356715990149456,0.00031175696331521736,4.072106402853261e-05,5.6921917459239125e-06
0.0005635269828464674,-2.1017323369565217e-05,6.261410920516304e-05,4.8602560292119564e-05,0.0005350660241168478,0.00040283203125,5.7797639266304343e-05,1.4011548913043478e-05
0.0005959286897078805,-2.1017323369565217e-05,9.720512058423913e-05,6.217624830163043e-05,0.0005753492272418478,0.0004593160878057065,7.399849269701087e-05,2.276876698369565e-05
0.00040151844853940214,-2.1017323369565217e-05,0.00010508661684782608,6.130052649456522e-05,0.0003988912831182065,0.00038575545601222824,7.137132727581522e-05,2.714737601902174e-05
-1.357368800951087e-05,-2.2330906080163042e-05,7.399849269701087e-05,4.1596785835597826e-05,1.8390157948369565e-05,0.00015237559442934782,4.4661812160326084e-05,2.4520210597826086e-05
-0.0003673652980638587,-1.5325131623641304e-05,2.7585236922554347e-05,1.4449409816576086e-05,-0.00030694049337635866,-0.00010683806046195652,1.1822244395380435e-05,1.8828018851902173e-05
-0.0005000371518342391,-1.7514436141304347e-06,-1.1822244395380435e-05,-7.881496263586956e-06,-0.0004396123471467391,-0.00026840873386548914,-1.620085343070652e-05,1.1384383491847825e-05
-0.0005433853812839674,7.443635360054348e-06,-4.334822944972826e-05,-2.583379330842391e-05,-0.000495658542798913,-0.00035773235818614127,-4.115892493206522e-05,2.627165421195652e-06
-0.0005517047384510869,1.313582710597826e-05,-7.00577445652174e-05,-3.984534222146739e-05,-0.0005122972571331521,-0.00040545919667119565,-5.954908288043478e-05,-5.254330842391304e-06
-0.00040633491847826084,2.2330906080163042e-05,-8.187998896059783e-05,-4.4223951256793476e-05,-0.00039013406504755435,-0.00035773235818614127,-5.7797639266304343e-05,-1.1822244395380435e-05
-0.00018390157948369563,3.240170686141304e-05,-7.399849269701087e-05,-3.5466733186141305e-05,-0.00020535676375679348,-0.00023469344429347824,-3.853175951086956e-05,-1.357368800951087e-05
-8.801004161005434e-05,3.240170686141304e-05,-5.823550016983695e-05,-2.1893045176630434e-05,-0.00013048254925271738,-0.00015500275985054347,-2.8898819633152172e-05,-7.881496263586956e-06
-1.2260105298913043e-05,2.2330906080163042e-05,-4.378609035326087e-05,-9.195078974184782e-06,-5.823550016983695e-05,-0.0001007080078125,-2.8023097826086955e-05,0.0
0.00023337986158288043,1.2260105298913043e-05,-2.0141601562499998e-05,5.6921917459239125e-06,0.00018127441406249998,5.035400390625e-05,-5.254330842391304e-06,1.7514436141304347e-06
0.00045625106148097826,5.254330842391304e-06,1.313582710597826e-05,2.1893045176630434e-05,0.0004072106402853261,0.00023994777513586957,2.8460958729619564e-05,3.5028872282608694e-06
0.00048164699388586956,-2.627165421195652e-06,4.291036854619565e-05,3.240170686141304e-05,0.000455375339673913,0.00033540145210597823,4.334822944972826e-05,7.005774456521739e-06
0.0005289359714673912,-1.1822244395380435e-05,7.180918817934783e-05,4.509967306385869e-05,0.0005197408924932065,0.00040064272673233695,5.385689113451087e-05,8.319357167119564e-06
0.00063446044921875,-2.057946246603261e-05,0.00010158372961956521,6.261410920516304e-05,0.0006191353175951087,0.00048208485478940216,7.443635360054348e-05,6.56791355298913e-06
0.0004693868885869565,-2.7585236922554347e-05,0.00010902736497961956,6.348983101222826e-05,0.0004540617569633152,0.000425162937330163,7.443635360054348e-05,3.940748131793478e-06
2.276876698369565e-05,-3.1088124150815216e-05,8.275571076766304e-05,3.940748131793478e-05,3.634245499320652e-05,0.00017514436141304347,4.2034646739130435e-05,-1.313582710597826e-06
-0.00034941300101902175,-2.977454144021739e-05,3.8093898607336954e-05,8.319357167119564e-06,-0.0003025618843410326,-0.0001007080078125,5.6921917459239125e-06,-1.0946522588315217e-05
-0.0005083565090013587,-2.320662788722826e-05,-8.319357167119564e-06,-1.4887270720108696e-05,-0.00044661812160326085,-0.0002797931173573369,-2.0141601562499998e-05,-1.970374065896739e-05
-0.0005521425993546196,-1.0070800781249999e-05,-5.035400390625e-05,-2.977454144021739e-05,-0.0004921556555706521,-0.0003682410198709239,-4.4223951256793476e-05,-2.364448879076087e-05
-0.0005201787533967391,3.5028872282608694e-06,-7.750137992527173e-05,-3.8093898607336954e-05,-0.00047639266304347826,-0.0003896962041440217,-6.086266559103261e-05,-2.0141601562499998e-05
-0.00040283203125,1.0946522588315217e-05,-8.450715438179348e-05,-3.853175951086956e-05,-0.00039057192595108695,-0.0003533537491508152,-6.086266559103261e-05,-1.4011548913043478e-05
-0.00024257494055706521,1.4011548913043478e-05,-8.012854534646738e-05,-3.283956776494565e-05,-0.00025833793308423914,-0.00026928445567255433,-5.1229725713315214e-05,-1.2260105298913043e-05
-8.801004161005434e-05,1.5762992527173912e-05,-7.137132727581522e-05,-2.670951511548913e-05,-0.00011253025220788043,-0.00015587848165760868,-3.984534222146739e-05,-6.56791355298913e-06
5.911122197690217e-05,1.620085343070652e-05,-5.4732612941576086e-05,-1.620085343070652e-05,3.3715289572010865e-05,-3.50288722826087e-05,-2.1893045176630434e-05,9.63293987771739e-06
0.00021411398182744564,1.313582710597826e-05,-2.5395932404891303e-05,4.378609035326087e-06,0.00017952297044836955,8.319357167119565e-05,1.7514436141304347e-06,2.1893045176630434e-05
0.00035247802734374997,6.130052649456522e-06,9.195078974184782e-06,2.933668053668478e-05,0.0003078162151834239,0.0001961616847826087,2.364448879076087e-05,1.970374065896739e-05
0.0004549374787703804,-8.757218070652174e-07,3.634245499320652e-05,4.597539487092391e-05,0.0004124649711277174,0.0002981832753057065,4.1596785835597826e-05,1.7076575237771737e-05
0.0005534561820652174,-8.757218070652174e-06,6.217624830163043e-05,5.692191745923913e-05,0.0005184273097826087,0.0003936369522758152,5.911122197690217e-05,2.364448879076087e-05
0.000596366550611413,-1.7076575237771737e-05,9.54536769701087e-05,6.436555281929347e-05,0.0005626512610394022,0.0004488074261209239,6.918202275815218e-05,2.8898819633152172e-05
0.00040633491847826084,-2.1893045176630434e-05,0.0001112166694972826,5.954908288043478e-05,0.0003774360988451087,0.0003664895762567935,6.130052649456522e-05,2.4958071501358695e-05
-4.378609035326087e-06,-1.8828018851902173e-05,7.969068444293477e-05,3.327742866847826e-05,-8.757218070652174e-06,0.00012829324473505435,3.3715289572010865e-05,1.2697966202445651e-05
-0.00034240722656249997,-1.4011548913043478e-05,2.4520210597826086e-05,-5.254330842391304e-06,-0.00031438412873641304,-0.00011909816576086957,-3.065026324728261e-06,-5.254330842391304e-06
-0.00046632186226222826,-1.2697966202445651e-05,-1.4011548913043478e-05,-3.721817680027174e-05,-0.00041596785835597825,-0.0002592136548913043,-3.50288722826087e-05,-2.0141601562499998e-05
-0.0005298116932744565,-7.881496263586956e-06,-3.940748131793478e-05,-5.5170473845108694e-05,-0.00046194325322690215,-0.0003362771739130435,-5.7797639266304343e-05,-2.627165421195652e-05
-0.0005648405655570652,1.7514436141304347e-06,-6.874416185461957e-05,-6.04248046875e-05,-0.0004882149074388587,-0.00038312829059103257,-6.786844004755434e-05,-2.977454144021739e-05
-0.0004286658245584239,8.319357167119564e-06,-8.888576341711956e-05,-5.385689113451087e-05,-0.0003774360988451087,-0.00033978006114130434,-5.954908288043478e-05,-2.8898819633152172e-05
-0.0002075460682744565,6.56791355298913e-06,-8.275571076766304e-05,-3.896962041440217e-05,-0.0002009781547214674,-0.00023075269616168478,-4.247250764266304e-05,-2.1455184273097826e-05
-0.00010858950407608696,5.254330842391304e-06,-6.56791355298913e-05,-2.583379330842391e-05,-0.00012654180112092392,-0.00016069495159646739,-3.50288722826087e-05,-1.2260105298913043e-05
-1.5325131623641304e-05,1.1384383491847825e-05,-4.772683848505435e-05,-1.4449409816576086e-05,-3.940748131793478e-05,-8.669645889945652e-05,-2.7585236922554347e-05,-2.627165421195652e-06
0.0002570243503736413,1.357368800951087e-05,-1.357368800951087e-05,4.378609035326087e-06,0.0002167411472486413,9.282651154891303e-05,-2.627165421195652e-06,7.005774456521739e-06
0.0004952206818953804,3.940748131793478e-06,2.933668053668478e-05,2.714737601902174e-05,0.00043610945991847826,0.00027629023012907606,2.670951511548913e-05,1.1822244395380435e-05
0.0005114215353260869,-7.005774456521739e-06,5.341903023097826e-05,4.247250764266304e-05,0.0004593160878057065,0.00033934220023777175,4.378609035326087e-05,7.443635360054348e-06
0.0005315631368885869,-1.1384383491847825e-05,7.137132727581522e-05,5.166758661684782e-05,0.000501350734544837,0.0003866311778192935,5.604619565217391e-05,0.0
0.0006112538213315218,-1.4011548913043478e-05,0.0001059623386548913,5.7359778362771735e-05,0.0005954908288043478,0.0004680733058763587,6.61169964334239e-05,-2.627165421195652e-06
0.000435233738111413,-1.8390157948369565e-05,0.0001256660793138587,4.947828209918478e-05,0.0004374230426290761,0.0004076485011888587,6.086266559103261e-05,3.940748131793478e-06
-1.926587975543478e-05,-1.751443614130435e-05,9.720512058423913e-05,2.627165421195652e-05,1.357368800951087e-05,0.00014580768087635868,3.721817680027174e-05,7.443635360054348e-06
-0.0004072106402853261,-1.1822244395380435e-05,3.984534222146739e-05,-8.757218070652174e-07,-0.00034941300101902175,-0.00013836404551630435,5.254330842391304e-06,8.757218070652174e-07
-0.00056396484375,-2.1893045176630435e-06,-1.5325131623641304e-05,-2.1893045176630434e-05,-0.0005017885954483695,-0.0003161355723505435,-2.627165421195652e-05,-6.56791355298913e-06
-0.0005792899753736413,9.195078974184782e-06,-5.7359778362771735e-05,-3.3715289572010865e-05,-0.0005276223887567934,-0.00039626411769701084,-4.904042119565217e-05,-9.63293987771739e-06
-0.0005293738323709239,1.7952297044836957e-05,-7.881496263586956e-05,-4.115892493206522e-05,-0.0004904042119565217,-0.0004019563094429348,-5.867336107336956e-05,-1.1384383491847825e-05
-0.00042122218919836955,2.2330906080163042e-05,-8.494501528532609e-05,-4.291036854619565e-05,-0.0003875068996263587,-0.00034547225288722824,-5.648405655570652e-05,-1.0946522588315217e-05
-0.00026578156844429346,2.583379330842391e-05,-8.53828761888587e-05,-3.3715289572010865e-05,-0.00023994777513586957,-0.00025308360224184784,-4.378609035326087e-05,-3.065026324728261e-06
-9.063720703124999e-05,2.627165421195652e-05,-7.443635360054348e-05,-1.357368800951087e-05,-9.019934612771738e-05,-0.00014361837635869565,-2.714737601902174e-05,6.56791355298913e-06
8.406929347826087e-05,2.1017323369565217e-05,-4.772683848505435e-05,5.254330842391304e-06,5.341903023097826e-05,-2.364448879076087e-05,-1.0070800781249999e-05,9.195078974184782e-06
0.00025833793308423914,1.5762992527173912e-05,-1.663871433423913e-05,1.663871433423913e-05,0.00020272959833559783,9.939442510190217e-05,9.195078974184782e-06,9.195078974184782e-06
0.0004120271102241848,1.313582710597826e-05,1.0070800781249999e-05,2.5395932404891303e-05,0.00033233642578124996,0.00021411398182744564,3.065026324728261e-05,1.620085343070652e-05
0.0005289359714673912,9.63293987771739e-06,3.896962041440217e-05,3.7656037703804346e-05,0.0004343580163043478,0.0003135084069293478,4.991614300271739e-05,2.320662788722826e-05
0.000626578952955163,-4.378609035326087e-07,7.443635360054348e-05,5.210544752038043e-05,0.000541633937669837,0.0004080863620923913,6.524127462635869e-05,1.970374065896739e-05
0.0006392769191576087,-1.751443614130435e-05,0.00010202159052309782,5.692191745923913e-05,0.0005757870881453804,0.0004597539487092391,7.312277088994565e-05,1.0946522588315217e-05
0.00041115138841711955,-3.1525985054347824e-05,0.00010333517323369564,4.509967306385869e-05,0.0003743710725203804,0.0003682410198709239,6.173838739809782e-05,-8.757218070652174e-07
-1.357368800951087e-05,-3.590459408967391e-05,7.268490998641304e-05,2.0141601562499998e-05,-3.940748131793478e-06,0.00012479035750679349,2.714737601902174e-05,-1.663871433423913e-05
-0.00034722369650135867,-3.5466733186141305e-05,2.583379330842391e-05,-1.1822244395380435e-05,-0.0002802309782608696,-0.00011209239130434782,-1.313582710597826e-05,-2.627165421195652e-05
-0.00047288977581521734,-3.1525985054347824e-05,-1.4887270720108696e-05,-3.634245499320652e-05,-0.0003739332116168478,-0.00023907205332880435,-3.896962041440217e-05,-2.7585236922554347e-05
-0.0005381310504415761,-2.1017323369565217e-05,-4.55375339673913e-05,-4.597539487092391e-05,-0.0004404880689538043,-0.00031701129415760866,-4.8164699388586956e-05,-3.196384595788043e-05
-0.0005665920091711956,-5.254330842391304e-06,-7.312277088994565e-05,-5.1229725713315214e-05,-0.0004838362984035326,-0.0003734953507133152,-5.385689113451087e-05,-3.50288722826087e-05
-0.0004277901027513587,5.6921917459239125e-06,-8.669645889945652e-05,-5.298116932744565e-05,-0.00037130604619565213,-0.00033233642578124996,-5.692191745923913e-05,-2.8460958729619564e-05
-0.00020842179008152172,9.195078974184782e-06,-7.356063179347826e-05,-4.247250764266304e-05,-0.00019484810207201085,-0.00021805472995923913,-5.0791864809782605e-05,-1.5325131623641304e-05
-0.0001160331394361413,1.0508661684782609e-05,-5.4732612941576086e-05,-2.8898819633152172e-05,-0.00013880190641983695,-0.00015281345533288044,-3.984534222146739e-05,-8.757218070652174e-07
-4.291036854619565e-05,1.7952297044836957e-05,-4.291036854619565e-05,-1.620085343070652e-05,-7.399849269701087e-05,-0.00010158372961956521,-2.8023097826086955e-05,1.1822244395380435e-05
0.00020842179008152172,2.1893045176630434e-05,-1.663871433423913e-05,7.881496263586956e-06,0.00017120361328124998,5.341903023097826e-05,-3.065026324728261e-06,1.620085343070652e-05
0.0004457423997961956,1.0508661684782609e-05,2.714737601902174e-05,3.4153150475543474e-05,0.0003936369522758152,0.0002368827488111413,3.021240234375e-05,1.1384383491847825e-05
0.00048514988111413043,-6.130052649456522e-06,5.911122197690217e-05,4.247250764266304e-05,0.0004339201554008152,0.00032138990319293477,5.298116932744565e-05,6.56791355298913e-06
0.0005420717985733695,-1.4449409816576086e-05,7.57499363111413e-05,5.0791864809782605e-05,0.0005031021781589674,0.0003826904296875,6.655485733695651e-05,1.0508661684782609e-05
0.0006484719981317934,-1.751443614130435e-05,9.851870329483695e-05,6.918202275815218e-05,0.0006077509341032609,0.00046238111413043475,7.969068444293477e-05,1.926587975543478e-05
0.00047201405400815216,-1.970374065896739e-05,0.00011253025220788043,7.180918817934783e-05,0.00043304443359375,0.0003993291440217391,7.531207540760869e-05,2.4082349694293478e-05
1.0508661684782609e-05,-1.751443614130435e-05,9.019934612771738e-05,4.728897758152174e-05,0.0,0.00013880190641983695,4.334822944972826e-05,1.926587975543478e-05
-0.00037480893342391305,-9.63293987771739e-06,4.1596785835597826e-05,1.4011548913043478e-05,-0.00034547225288722824,-0.00014230479364809781,4.816469938858695e-06,7.005774456521739e-06
-0.0005385689113451087,1.313582710597826e-06,-7.881496263586956e-06,-1.2260105298913043e-05,-0.0004833984375,-0.00031175696331521736,-2.4520210597826086e-05,-8.757218070652174e-06
-0.0005718463400135869,9.195078974184782e-06,-4.947828209918478e-05,-3.283956776494565e-05,-0.0005144865616508152,-0.00038531759510869565,-4.55375339673913e-05,-1.7952297044836957e-05
-0.0005289359714673912,9.63293987771739e-06,-7.750137992527173e-05,-4.8164699388586956e-05,-0.0004807712720788043,-0.00039582625679347825,-5.867336107336956e-05,-2.057946246603261e-05
-0.0004199086064877717,9.195078974184782e-06,-8.844790251358695e-05,-5.4732612941576086e-05,-0.00038050112516983695,-0.00034722369650135867,-6.56791355298913e-05,-2.8898819633152172e-05
-0.00026621942934782606,1.2697966202445651e-05,-8.625859799592391e-05,-5.035400390625e-05,-0.0002465156886888587,-0.00025571076766304346,-6.261410920516304e-05,-3.4153150475543474e-05
-8.844790251358695e-05,1.4011548913043478e-05,-7.224704908288043e-05,-3.5466733186141305e-05,-0.0001011458687160326,-0.0001462455417798913,-4.55375339673913e-05,-2.1893045176630434e-05
9.457795516304348e-05,9.195078974184782e-06,-4.641325577445652e-05,-1.4887270720108696e-05,6.217624830163043e-05,-2.2330906080163042e-05,-1.970374065896739e-05,-6.56791355298913e-06
0.00026840873386548914,4.816469938858695e-06,-1.663871433423913e-05,4.378609035326087e-06,0.0002320662788722826,0.00011209239130434782,5.6921917459239125e-06,-3.5028872282608694e-06
0.000405021335767663,1.7514436141304347e-06,7.881496263586956e-06,1.751443614130435e-05,0.00035729449728260867,0.00022724980893342391,2.627165421195652e-05,-1.313582710597826e-06
0.0004991614300271739,-3.5028872282608694e-06,3.459101137907609e-05,2.714737601902174e-05,0.0004334822944972826,0.0003126326851222826,4.072106402853261e-05,8.319357167119564e-06
0.0005801656971807065,-1.0946522588315217e-05,7.049560546875e-05,4.0283203124999995e-05,0.0005206166143002717,0.0003980155613111413,5.4732612941576086e-05,1.620085343070652e-05
0.0005836685844089674,-1.926587975543478e-05,0.0001011458687160326,5.4732612941576086e-05,0.0005573969301970108,0.0004527481742527174,6.874416185461957e-05,1.5762992527173912e-05
0.00034722369650135867,-2.670951511548913e-05,0.00010508661684782608,5.341903023097826e-05,0.0003581702190896739,0.0003612352454144022,6.392769191576087e-05,1.313582710597826e-05
-7.57499363111413e-05,-2.4958071501358695e-05,7.57499363111413e-05,3.021240234375e-05,-3.590459408967391e-05,0.00011034094769021739,3.283956776494565e-05,1.1822244395380435e-05
-0.0003883826214334239,-9.63293987771739e-06,2.933668053668478e-05,8.757218070652174e-07,-0.00033058498216711953,-0.00013573688009510868,-8.757218070652174e-07,1.0508661684782609e-05
-0.00048690132472826086,8.319357167119564e-06,-1.1384383491847825e-05,-1.8828018851902173e-05,-0.0004277901027513587,-0.0002679708729619565,-2.320662788722826e-05,1.313582710597826e-05
-0.0005306874150815217,1.8828018851902173e-05,-4.072106402853261e-05,-3.459101137907609e-05,-0.0004833984375,-0.0003389043393342391,-4.115892493206522e-05,1.5325131623641304e-05
-0.0005341903023097826,2.4958071501358695e-05,-5.954908288043478e-05,-4.641325577445652e-05,-0.0005052914826766304,-0.00037480893342391305,-5.5170473845108694e-05,5.6921917459239125e-06
-0.00038006326426630435,3.065026324728261e-05,-6.392769191576087e-05,-4.247250764266304e-05,-0.00037130604619565213,-0.0003174491550611413,-5.4732612941576086e-05,-9.195078974184782e-06
-0.0001764579441236413,2.933668053668478e-05,-5.7797639266304343e-05,-2.714737601902174e-05,-0.00018302585767663042,-0.00020448104194972826,-3.984534222146739e-05,-1.8828018851902173e-05
-0.0001059623386548913,1.970374065896739e-05,-5.341903023097826e-05,-1.663871433423913e-05,-0.00010990308678668478,-0.00013923976732336957,-2.4082349694293478e-05,-2.364448879076087e-05
-2.4520210597826086e-05,8.757218070652174e-06,-4.641325577445652e-05,-4.816469938858695e-06,-1.7952297044836957e-05,-7.137132727581522e-05,-7.881496263586956e-06,-1.8390157948369565e-05
0.0002465156886888587,-1.7514436141304347e-06,-2.364448879076087e-05,2.4520210597826086e-05,0.0002320662788722826,9.676725968070652e-05,1.751443614130435e-05,1.313582710597826e-06
0.0004917177946671196,-1.2697966202445651e-05,1.0070800781249999e-05,5.254330842391304e-05,0.0004238493546195652,0.0002644679857336956,4.247250764266304e-05,2.0141601562499998e-05
0.0005477639903192934,-1.4011548913043478e-05,3.940748131793478e-05,5.648405655570652e-05,0.0004334822944972826,0.0003231413468070652,5.4732612941576086e-05,2.320662788722826e-05
0.0006257032311480978,-1.1822244395380435e-05,6.436555281929347e-05,5.341903023097826e-05,0.0004908420728600544,0.0003743710725203804,6.392769191576087e-05,1.8390157948369565e-05
0.0007119618291440217,-2.320662788722826e-05,9.063720703124999e-05,5.4732612941576086e-05,0.0005854200280230979,0.0004527481742527174,7.312277088994565e-05,9.195078974184782e-06
0.00047332763671875,-4.2034646739130435e-05,9.983228600543478e-05,4.0283203124999995e-05,0.0004089620838994565,0.00038575545601222824,6.261410920516304e-05,-5.6921917459239125e-06
-3.896962041440217e-05,-4.55375339673913e-05,7.312277088994565e-05,9.195078974184782e-06,-1.7514436141304347e-06,0.00013179613196331522,2.7585236922554347e-05,-2.1893045176630434e-05
-0.0004339201554008152,-3.3715289572010865e-05,2.276876698369565e-05,-2.1455184273097826e-05,-0.00032007632048233693,-0.00013310971467391303,-1.2697966202445651e-05,-3.459101137907609e-05
-0.0005832307235054347,-1.970374065896739e-05,-2.320662788722826e-05,-4.4223951256793476e-05,-0.00045449961786684783,-0.00029643183169157606,-4.509967306385869e-05,-4.291036854619565e-05
-0.0006059994904891304,-8.319357167119564e-06,-5.7797639266304343e-05,-5.5170473845108694e-05,-0.0005044157608695652,-0.0003769982379415761,-6.524127462635869e-05,-3.984534222146739e-05
-0.0005565212083899456,2.627165421195652e-06,-8.363143257472826e-05,-5.648405655570652e-05,-0.0004921556555706521,-0.0003993291440217391,-7.399849269701087e-05,-2.933668053668478e-05
-0.00043173085088315215,1.357368800951087e-05,-9.58915378736413e-05,-5.5170473845108694e-05,-0.0003980155613111413,-0.0003612352454144022,-7.312277088994565e-05,-2.1017323369565217e-05
-0.0002627165421195652,2.1893045176630434e-05,-9.195078974184782e-05,-4.947828209918478e-05,-0.0002526457413383152,-0.00027059803838315217,-6.261410920516304e-05,-1.313582710597826e-05
-9.019934612771738e-05,2.583379330842391e-05,-7.487421450407608e-05,-3.4153150475543474e-05,-0.00010027014690896739,-0.0001563163425611413,-4.334822944972826e-05,-4.378609035326087e-07
7.881496263586956e-05,2.276876698369565e-05,-4.685111667798913e-05,-1.663871433423913e-05,4.947828209918478e-05,-3.7656037703804346e-05,-2.1017323369565217e-05,1.1822244395380435e-05
0.0002443263841711956,1.5325131623641304e-05,-1.5325131623641304e-05,0.0,0.000201416015625,8.932362432065217e-05,2.627165421195652e-06,1.8390157948369565e-05
0.0003743710725203804,9.195078974184782e-06,1.2697966202445651e-05,2.057946246603261e-05,0.0003310228430706522,0.00021586542544157607,2.7585236922554347e-05,2.1017323369565217e-05
0.0004685111667798913,3.940748131793478e-06,4.2034646739130435e-05,4.115892493206522e-05,0.0004295415463654891,0.00031657343325407607,4.772683848505435e-05,2.4082349694293478e-05
0.000566154148267663,-5.254330842391304e-06,7.662565811820652e-05,5.648405655570652e-05,0.0005289359714673912,0.0003997670049252717,6.436555281929347e-05,2.670951511548913e-05
0.0005915500806725543,-1.751443614130435e-05,0.00010640019955842391,6.56791355298913e-05,0.0005648405655570652,0.00045099673063858696,7.837710173233695e-05,2.7585236922554347e-05
0.0003686788807744565,-2.364448879076087e-05,0.00011034094769021739,6.480341372282608e-05,0.00036999246348505435,0.0003717439070991848,7.180918817934783e-05,2.7585236922554347e-05
-4.947828209918478e-05,-1.8390157948369565e-05,8.012854534646738e-05,4.8602560292119564e-05,-1.5762992527173912e-05,0.00013529901919157608,3.7656037703804346e-05,2.320662788722826e-05
-0.0003634245499320652,-1.0946522588315217e-05,3.283956776494565e-05,2.0141601562499998e-05,-0.00030956765879755434,-0.00010990308678668478,1.7514436141304347e-06,1.1822244395380435e-05
-0.00046632186226222826,-7.005774456521739e-06,-9.195078974184782e-06,-6.56791355298913e-06,-0.00040677277938179344,-0.00025045643682065216,-1.663871433423913e-05,3.065026324728261e-06
-0.0005153622834578804,1.7514436141304347e-06,-4.247250764266304e-05,-2.276876698369565e-05,-0.00046106753141983696,-0.0003327742866847826,-3.240170686141304e-05,3.065026324728261e-06
-0.0005241195015285325,1.5762992527173912e-05,-6.655485733695651e-05,-3.1525985054347824e-05,-0.00048646346382472827,-0.0003783118206521739,-5.0791864809782605e-05,-3.5028872282608694e-06
-0.0003664895762567935,2.057946246603261e-05,-7.399849269701087e-05,-3.896962041440217e-05,-0.0003590459408967391,-0.00032533065132472823,-5.429475203804348e-05,-2.1017323369565217e-05
-0.00014843484629755433,1.4449409816576086e-05,-6.61169964334239e-05,-3.984534222146739e-05,-0.0001808365531589674,-0.0002163032863451087,-4.1596785835597826e-05,-3.065026324728261e-05
-5.867336107336956e-05,7.005774456521739e-06,-5.954908288043478e-05,-3.1525985054347824e-05,-0.0001221631920855978,-0.00015806778617527174,-3.240170686141304e-05,-3.065026324728261e-05
3.634245499320652e-05,1.7514436141304347e-06,-5.429475203804348e-05,-2.2330906080163042e-05,-3.4153150475543474e-05,-8.888576341711956e-05,-2.5395932404891303e-05,-3.1088124150815216e-05
0.00029643183169157606,-4.378609035326087e-07,-2.8898819633152172e-05,-7.881496263586956e-06,0.0002329420006793478,9.151292883831521e-05,-1.7514436141304347e-06,-2.364448879076087e-05
0.0005000371518342391,-2.627165421195652e-06,1.313582710597826e-05,1.5762992527173912e-05,0.0004396123471467391,0.00026928445567255433,2.8023097826086955e-05,-3.940748131793478e-06
0.0005083565090013587,-9.195078974184782e-06,4.55375339673913e-05,3.590459408967391e-05,0.00045231031334918475,0.0003332121475883152,4.2034646739130435e-05,1.0070800781249999e-05
0.0005530183211616848,-1.8390157948369565e-05,7.049560546875e-05,4.641325577445652e-05,0.0005140487007472826,0.00039626411769701084,5.035400390625e-05,8.757218070652174e-06
0.0006318332837975543,-2.4082349694293478e-05,0.00010158372961956521,5.954908288043478e-05,0.0006169460130774456,0.0004860256029211956,6.699271824048912e-05,2.627165421195652e-06
0.00042078432829483696,-2.057946246603261e-05,0.00011384383491847825,6.655485733695651e-05,0.00043216871178668474,0.0004133406929347826,7.312277088994565e-05,3.940748131793478e-06
-5.254330842391304e-05,-1.1822244395380435e-05,8.363143257472826e-05,4.641325577445652e-05,-6.130052649456522e-06,0.0001366126019021739,4.8164699388586956e-05,4.816469938858695e-06
-0.00042560079823369566,-5.254330842391304e-06,3.021240234375e-05,1.0946522588315217e-05,-0.00034985086192255435,-0.00014887270720108695,5.6921917459239125e-06,-8.757218070652174e-07
-0.0005604619565217391,4.378609035326087e-07,-1.7076575237771737e-05,-1.8390157948369565e-05,-0.0004807712720788043,-0.00031438412873641304,-2.933668053668478e-05,-7.005774456521739e-06
-0.0005679055918817934,1.0508661684782609e-05,-5.385689113451087e-05,-3.8093898607336954e-05,-0.0005026643172554348,-0.0003840040123980978,-4.8602560292119564e-05,-3.940748131793478e-06
-0.0005162380052649456,2.057946246603261e-05,-7.618779721467391e-05,-4.55375339673913e-05,-0.0004680733058763587,-0.0003945126740828804,-5.5170473845108694e-05,8.757218070652174e-07
-0.00039845342221467387,2.714737601902174e-05,-8.144212805706522e-05,-3.940748131793478e-05,-0.0003695546025815217,-0.0003480994183084239,-5.56083347486413e-05,1.7514436141304347e-06
-0.00022900125254755435,2.933668053668478e-05,-7.531207540760869e-05,-3.065026324728261e-05,-0.00022724980893342391,-0.00025527290675951087,-5.341903023097826e-05,1.7514436141304347e-06
-5.7359778362771735e-05,2.5395932404891303e-05,-6.480341372282608e-05,-2.4520210597826086e-05,-7.750137992527173e-05,-0.00013880190641983695,-4.115892493206522e-05,1.7514436141304347e-06
8.932362432065217e-05,1.5325131623641304e-05,-4.597539487092391e-05,-1.1822244395380435e-05,5.867336107336956e-05,-2.0141601562499998e-05,-1.751443614130435e-05,0.0
0.00022374692170516302,3.5028872282608694e-06,-1.8390157948369565e-05,6.56791355298913e-06,0.00018565302309782607,8.976148522418478e-05,4.378609035326087e-06,-2.1893045176630435e-06
0.0003437208092730978,-6.56791355298913e-06,7.443635360054348e-06,2.0141601562499998e-05,0.0002986211362092391,0.0001909073539402174,1.7076575237771737e-05,-1.313582710597826e-06
0.0004457423997961956,-1.4887270720108696e-05,3.196384595788043e-05,2.670951511548913e-05,0.00040151844853940214,0.0002872367527173913,3.283956776494565e-05,1.7514436141304347e-06
0.0005534561820652174,-2.364448879076087e-05,6.480341372282608e-05,3.7656037703804346e-05,0.0005162380052649456,0.0003888204823369565,5.648405655570652e-05,7.881496263586956e-06
0.0005884850543478261,-3.634245499320652e-05,9.632939877717391e-05,5.385689113451087e-05,0.0005587105129076087,0.0004501210088315217,7.137132727581522e-05,9.63293987771739e-06
0.0003717439070991848,-4.291036854619565e-05,9.939442510190217e-05,5.5170473845108694e-05,0.0003586080799932065,0.0003638624108355978,6.261410920516304e-05,4.816469938858695e-06
-4.4661812160326084e-05,-3.240170686141304e-05,7.00577445652174e-05,3.283956776494565e-05,-2.8023097826086955e-05,0.00012172533118206522,3.283956776494565e-05,3.065026324728261e-06
-0.0003480994183084239,-1.5762992527173912e-05,2.933668053668478e-05,4.378609035326087e-06,-0.0003108812415081522,-0.00011997388756793478,0.0,4.816469938858695e-06
-0.0004347958772078804,-8.757218070652174e-06,-8.319357167119564e-06,-1.357368800951087e-05,-0.0003975777004076087,-0.00025089429772418476,-2.1893045176630434e-05,8.757218070652174e-07
-0.0004807712720788043,-7.881496263586956e-06,-4.115892493206522e-05,-2.627165421195652e-05,-0.00044661812160326085,-0.00032226562499999996,-3.940748131793478e-05,-3.5028872282608694e-06
-0.0005039778999660325,0.0,-6.56791355298913e-05,-3.7656037703804346e-05,-0.00046675972316576086,-0.0003664895762567935,-5.385689113451087e-05,-3.5028872282608694e-06
-0.0003787496815557065,1.4449409816576086e-05,-7.57499363111413e-05,-4.0283203124999995e-05,-0.0003480994183084239,-0.00032445492951766304,-5.429475203804348e-05,-6.130052649456522e-06
-0.00020491890285326085,2.4958071501358695e-05,-6.874416185461957e-05,-3.1525985054347824e-05,-0.0001974752674932065,-0.00022506050441576086,-4.334822944972826e-05,-1.313582710597826e-05
-0.0001409912109375,2.670951511548913e-05,-5.7359778362771735e-05,-2.1017323369565217e-05,-0.00015762992527173911,-0.0001668250042459239,-3.459101137907609e-05,-1.4011548913043478e-05
-3.459101137907609e-05,2.2330906080163042e-05,-4.597539487092391e-05,-1.0946522588315217e-05,-6.874416185461957e-05,-0.00010027014690896739,-2.057946246603261e-05,-9.63293987771739e-06
0.00024476424507472827,1.4449409816576086e-05,-2.2330906080163042e-05,9.195078974184782e-06,0.00019835098930027172,7.00577445652174e-05,7.443635360054348e-06,-6.56791355298913e-06
0.00045099673063858696,7.881496263586956e-06,1.1822244395380435e-05,3.240170686141304e-05,0.00040589705757472825,0.0002421370796535326,3.240170686141304e-05,-1.7514436141304347e-06
0.0004584403659986413,4.378609035326087e-06,4.115892493206522e-05,3.7656037703804346e-05,0.0004347958772078804,0.0003130705460258152,3.984534222146739e-05,6.130052649456522e-06
0.0005210544752038043,-4.378609035326087e-07,7.049560546875e-05,3.590459408967391e-05,0.0005131729789402174,0.0003840040123980978,4.991614300271739e-05,1.4887270720108696e-05
0.0006309575619904891,-1.0946522588315217e-05,0.00010421089504076086,4.509967306385869e-05,0.0006130052649456521,0.00047157619310461956,6.918202275815218e-05,2.4082349694293478e-05
0.0004391744862432065,-1.7952297044836957e-05,0.00011428169582201086,4.991614300271739e-05,0.00042166005010190214,0.0003945126740828804,6.786844004755434e-05,3.240170686141304e-05
-3.5466733186141305e-05,-1.2697966202445651e-05,8.231784986413044e-05,3.3715289572010865e-05,-1.0946522588315217e-05,0.00012479035750679349,3.634245499320652e-05,2.8898819633152172e-05
-0.00041552999745244566,-3.940748131793478e-06,3.283956776494565e-05,5.6921917459239125e-06,-0.0003480994183084239,-0.0001466834026834239,-1.313582710597826e-06,1.0070800781249999e-05
-0.00055389404296875,-4.378609035326087e-06,-9.195078974184782e-06,-2.0141601562499998e-05,-0.00048208485478940216,-0.00030475118885869563,-2.977454144021739e-05,-7.005774456521739e-06
-0.0005622134001358695,-8.757218070652174e-06,-4.509967306385869e-05,-3.7656037703804346e-05,-0.0005039778999660325,-0.0003734953507133152,-4.991614300271739e-05,-1.1822244395380435e-05
-0.0005039778999660325,-7.443635360054348e-06,-7.57499363111413e-05,-4.641325577445652e-05,-0.0004584403659986413,-0.0003822525687839674,-6.086266559103261e-05,-1.5762992527173912e-05
-0.0003743710725203804,-5.254330842391304e-06,-9.326437245244564e-05,-4.947828209918478e-05,-0.0003542294709578804,-0.00033452573029891304,-6.305197010869565e-05,-2.627165421195652e-05
-0.00021061109459918477,-2.1893045176630435e-06,-9.10750679347826e-05,-4.597539487092391e-05,-0.0002228711998980978,-0.00024563996688179346,-5.867336107336956e-05,-2.8898819633152172e-05
-5.298116932744565e-05,0.0,-7.356063179347826e-05,-3.4153150475543474e-05,-8.450715438179348e-05,-0.00013705046280570652,-4.247250764266304e-05,-1.7076575237771737e-05
0.00010552447775135868,-3.065026324728261e-06,-5.254330842391304e-05,-1.5762992527173912e-05,6.524127462635869e-05,-1.7076575237771737e-05,-1.5762992527173912e-05,-5.254330842391304e-06
0.00026315440302309784,-6.130052649456522e-06,-2.8460958729619564e-05,4.378609035326087e-06,0.00021980617357336956,0.00011077880859375,6.56791355298913e-06,-8.757218070652174e-07
0.00038575545601222824,-6.56791355298913e-06,3.940748131793478e-06,2.057946246603261e-05,0.00034547225288722824,0.0002268119480298913,2.2330906080163042e-05,3.065026324728261e-06
0.00048164699388586956,-9.63293987771739e-06,3.8093898607336954e-05,3.240170686141304e-05,0.0004400502080502717,0.0003231413468070652,4.2034646739130435e-05,1.1822244395380435e-05
0.0005867336107336956,-1.1822244395380435e-05,7.180918817934783e-05,4.728897758152174e-05,0.0005403203549592391,0.00041640571925951085,6.217624830163043e-05,1.7952297044836957e-05
0.000606437351392663,-1.0508661684782609e-05,0.00010464875594429347,6.173838739809782e-05,0.0005731599227241848,0.0004658840013586956,7.312277088994565e-05,1.5325131623641304e-05
0.00036517599354619565,-1.751443614130435e-05,0.00011253025220788043,5.604619565217391e-05,0.00036473813264266305,0.0003673652980638587,6.918202275815218e-05,7.443635360054348e-06
-7.224704908288043e-05,-2.4520210597826086e-05,7.837710173233695e-05,2.583379330842391e-05,-4.2034646739130435e-05,0.00011428169582201086,4.2034646739130435e-05,1.313582710597826e-06
-0.0003975777004076087,-1.5325131623641304e-05,2.670951511548913e-05,-4.816469938858695e-06,-0.00034985086192255435,-0.00013792618461277173,0.0,-2.627165421195652e-06
-0.0004987235691236413,0.0,-1.4449409816576086e-05,-1.926587975543478e-05,-0.0004457423997961956,-0.00027891739555027174,-3.240170686141304e-05,-7.881496263586956e-06
-0.0005398824940557065,4.816469938858695e-06,-4.772683848505435e-05,-3.327742866847826e-05,-0.0004912799337635869,-0.0003581702190896739,-4.947828209918478e-05,-1.2697966202445651e-05
-0.0005486397121263587,6.56791355298913e-06,-7.531207540760869e-05,-5.254330842391304e-05,-0.0005061672044836957,-0.0004037077530570652,-6.217624830163043e-05,-1.4011548913043478e-05
-0.00039845342221467387,1.4011548913043478e-05,-8.450715438179348e-05,-5.385689113451087e-05,-0.0003721817680027174,-0.0003480994183084239,-6.305197010869565e-05,-1.0070800781249999e-05
-0.00018346371858016304,2.0141601562499998e-05,-7.268490998641304e-05,-3.283956776494565e-05,-0.00019528596297554347,-0.00022549836531929348,-4.947828209918478e-05,-6.56791355298913e-06
-8.932362432065217e-05,1.8390157948369565e-05,-5.7797639266304343e-05,-1.8390157948369565e-05,-0.0001366126019021739,-0.00015456489894701087,-3.853175951086956e-05,-6.56791355298913e-06
1.751443614130435e-05,1.5762992527173912e-05,-4.728897758152174e-05,-1.4011548913043478e-05,-4.247250764266304e-05,-8.801004161005434e-05,-2.8460958729619564e-05,-4.378609035326087e-06
0.00028855033542798914,1.1822244395380435e-05,-2.4082349694293478e-05,0.0,0.00022024403447690216,8.494501528532609e-05,-3.065026324728261e-06,1.7514436141304347e-06
0.0004886527683423912,-1.313582710597826e-06,1.2260105298913043e-05,1.8390157948369565e-05,0.0004181571628736413,0.00026052723760190216,2.364448879076087e-05,5.254330842391304e-06
0.0004812091329823369,-1.970374065896739e-05,4.334822944972826e-05,2.8898819633152172e-05,0.00044180165166440215,0.00032708209493885866,3.634245499320652e-05,2.627165421195652e-06
0.0005193030315896738,-2.8460958729619564e-05,6.918202275815218e-05,3.8093898607336954e-05,0.0005193030315896738,0.0003945126740828804,5.0791864809782605e-05,3.5028872282608694e-06
0.0005994315769361413,-3.065026324728261e-05,9.54536769701087e-05,5.298116932744565e-05,0.0006130052649456521,0.00048296057659646735,7.356063179347826e-05,1.1384383491847825e-05
0.00039538839588994565,-3.3715289572010865e-05,0.00010377303413722825,5.4732612941576086e-05,0.0004133406929347826,0.0004041456139605978,7.57499363111413e-05,1.620085343070652e-05
-5.035400390625e-05,-2.8460958729619564e-05,7.969068444293477e-05,3.459101137907609e-05,-1.2697966202445651e-05,0.00013442329738451087,4.597539487092391e-05,1.8390157948369565e-05
-0.0003866311778192935,-1.1384383491847825e-05,3.940748131793478e-05,9.63293987771739e-06,-0.0003262063731317935,-0.00012960682744565216,8.319357167119564e-06,2.276876698369565e-05
-0.0005122972571331521,6.56791355298913e-06,-8.757218070652174e-07,-7.443635360054348e-06,-0.000445304538892663,-0.00028154456097146736,-1.7952297044836957e-05,2.1455184273097826e-05
-0.0005355038850203804,2.1893045176630434e-05,-3.896962041440217e-05,-2.1017323369565217e-05,-0.00048252271569293475,-0.0003533537491508152,-3.853175951086956e-05,9.63293987771739e-06
-0.0004995992909307065,2.8460958729619564e-05,-6.699271824048912e-05,-3.1525985054347824e-05,-0.00046457041864809783,-0.00037086818529211954,-5.1229725713315214e-05,-8.757218070652174e-07
-0.00039276123046875,2.4082349694293478e-05,-7.837710173233695e-05,-3.50288722826087e-05,-0.0003743710725203804,-0.0003362771739130435,-4.947828209918478e-05,-4.378609035326087e-06
-0.00023469344429347824,1.8390157948369565e-05,-7.793924082880434e-05,-3.283956776494565e-05,-0.00024520210597826086,-0.0002592136548913043,-4.072106402853261e-05,-4.816469938858695e-06
-6.524127462635869e-05,1.7076575237771737e-05,-7.00577445652174e-05,-2.4958071501358695e-05,-0.00010990308678668478,-0.00015719206436820652,-2.977454144021739e-05,-3.940748131793478e-06
0.0001011458687160326,1.0508661684782609e-05,-5.5170473845108694e-05,-8.319357167119564e-06,3.678031589673913e-05,-4.378609035326087e-05,-1.1822244395380435e-05,-3.065026324728261e-06
0.0002592136548913043,-2.1893045176630435e-06,-3.5466733186141305e-05,6.56791355298913e-06,0.00019309665845788042,7.706351902173912e-05,8.757218070652174e-06,-5.6921917459239125e-06
0.00037524679432744565,-9.195078974184782e-06,-7.881496263586956e-06,1.4449409816576086e-05,0.00032445492951766304,0.0001961616847826087,2.714737601902174e-05,-3.940748131793478e-06
0.0004540617569633152,-1.0946522588315217e-05,2.933668053668478e-05,2.364448879076087e-05,0.0004291036854619565,0.0003029997452445652,4.378609035326087e-05,3.940748131793478e-06
0.0005468882685122282,-1.751443614130435e-05,6.655485733695651e-05,3.8093898607336954e-05,0.0005394446331521738,0.00040283203125,5.823550016983695e-05,5.6921917459239125e-06
0.0005714084791100543,-3.021240234375e-05,9.019934612771738e-05,4.4223951256793476e-05,0.0005722842009171196,0.0004580025050951087,6.392769191576087e-05,-2.1893045176630435e-06
0.00034196936565896737,-3.590459408967391e-05,9.457795516304348e-05,3.634245499320652e-05,0.0003590459408967391,0.0003669274371603261,5.429475203804348e-05,-1.313582710597826e-06
-7.531207540760869e-05,-2.627165421195652e-05,7.399849269701087e-05,2.1017323369565217e-05,-3.240170686141304e-05,0.00012128747027853261,2.7585236922554347e-05,1.0070800781249999e-05
-0.00037480893342391305,-1.0070800781249999e-05,3.50288722826087e-05,2.627165421195652e-06,-0.0003156977114470109,-0.00011997388756793478,-3.065026324728261e-06,1.1384383491847825e-05
-0.00046457041864809783,-4.378609035326087e-07,-7.881496263586956e-06,-1.926587975543478e-05,-0.00041684358016304344,-0.00025527290675951087,-3.1088124150815216e-05,-3.5028872282608694e-06
-0.000505729343580163,1.7514436141304347e-06,-4.597539487092391e-05,-4.509967306385869e-05,-0.0004838362984035326,-0.00034240722656249997,-5.648405655570652e-05,-1.663871433423913e-05
-0.0005070429262907609,2.627165421195652e-06,-7.399849269701087e-05,-6.130052649456522e-05,-0.0005009128736413043,-0.00039582625679347825,-7.137132727581522e-05,-2.1893045176630434e-05
-0.0003586080799932065,6.130052649456522e-06,-8.625859799592391e-05,-5.56083347486413e-05,-0.00036079738451086954,-0.0003384664784307065,-6.261410920516304e-05,-2.2330906080163042e-05
-0.00017470650050951088,1.1822244395380435e-05,-8.319357167119565e-05,-3.634245499320652e-05,-0.00018871804942255434,-0.00021542756453804348,-4.1596785835597826e-05,-1.5762992527173912e-05
-0.00010552447775135868,1.2697966202445651e-05,-7.00577445652174e-05,-2.1455184273097826e-05,-0.00012697966202445651,-0.00014274265455163044,-2.933668053668478e-05,-4.816469938858695e-06
1.8390157948369565e-05,1.0070800781249999e-05,-4.597539487092391e-05,-8.757218070652174e-06,-1.7952297044836957e-05,-6.743057914402173e-05,-2.0141601562499998e-05,3.940748131793478e-06
0.0003231413468070652,1.1384383491847825e-05,-9.195078974184782e-06,1.0508661684782609e-05,0.0002513321586277174,0.00010815164317255435,2.627165421195652e-06,1.0508661684782609e-05
0.0005368174677309783,1.0946522588315217e-05,2.8460958729619564e-05,3.065026324728261e-05,0.0004448666779891304,0.00027891739555027174,3.1088124150815216e-05,1.620085343070652e-05
0.0005254330842391304,-1.7514436141304347e-06,5.429475203804348e-05,4.291036854619565e-05,0.0004597539487092391,0.0003432829483695652,5.166758661684782e-05,1.8828018851902173e-05
0.0005530183211616848,-2.057946246603261e-05,7.706351902173912e-05,5.166758661684782e-05,0.0005315631368885869,0.0004032698921535326,6.961988366168479e-05,1.5762992527173912e-05
0.0006248275093410326,-3.240170686141304e-05,0.00010333517323369564,5.692191745923913e-05,0.0006287682574728261,0.0004807712720788043,8.231784986413044e-05,8.757218070652174e-06
0.0004041456139605978,-3.590459408967391e-05,0.00011034094769021739,4.8602560292119564e-05,0.00042603865913722825,0.00040108058763586955,7.00577445652174e-05,4.378609035326087e-06
-8.450715438179348e-05,-3.240170686141304e-05,7.969068444293477e-05,2.4520210597826086e-05,-3.283956776494565e-05,0.00012435249660326086,3.4153150475543474e-05,8.757218070652174e-07
-0.0004711383322010869,-2.057946246603261e-05,2.8023097826086955e-05,-3.065026324728261e-06,-0.00038575545601222824,-0.00016726286514945652,-1.7514436141304347e-06,-6.130052649456522e-06
-0.0006090645168138586,-2.627165421195652e-06,-2.057946246603261e-05,-2.364448879076087e-05,-0.0005140487007472826,-0.0003432829483695652,-3.021240234375e-05,-1.1384383491847825e-05
-0.000604248046875,1.2260105298913043e-05,-5.7359778362771735e-05,-3.3715289572010865e-05,-0.0005355038850203804,-0.00041596785835597825,-5.429475203804348e-05,-7.881496263586956e-06
-0.0005249952233355978,2.320662788722826e-05,-7.969068444293477e-05,-3.853175951086956e-05,-0.0004978478473165761,-0.00042078432829483696,-6.961988366168479e-05,-2.1893045176630435e-06
-0.00037787395974864127,2.8460958729619564e-05,-8.844790251358695e-05,-3.853175951086956e-05,-0.0003883826214334239,-0.00036517599354619565,-6.524127462635869e-05,-1.313582710597826e-06
-0.00020404318104619564,2.1893045176630434e-05,-8.275571076766304e-05,-3.196384595788043e-05,-0.00023819633152173913,-0.0002649058466372283,-4.334822944972826e-05,-5.6921917459239125e-06
-4.947828209918478e-05,1.0946522588315217e-05,-6.61169964334239e-05,-2.1893045176630434e-05,-8.53828761888587e-05,-0.00014580768087635868,-2.4082349694293478e-05,-1.0946522588315217e-05
8.932362432065217e-05,6.130052649456522e-06,-4.509967306385869e-05,-1.0070800781249999e-05,6.961988366168479e-05,-1.8390157948369565e-05,-1.1822244395380435e-05,-1.2260105298913043e-05
0.00023863419242527173,1.7514436141304347e-06,-1.8828018851902173e-05,4.816469938858695e-06,0.0002228711998980978,0.00011034094769021739,6.56791355298913e-06,-9.63293987771739e-06
0.0003783118206521739,-7.005774456521739e-06,1.4449409816576086e-05,2.057946246603261e-05,0.0003415315047554348,0.00022024403447690216,2.627165421195652e-05,-6.56791355298913e-06
0.0004908420728600544,-1.0508661684782609e-05,4.772683848505435e-05,3.196384595788043e-05,0.0004343580163043478,0.00030912979789402174,3.4153150475543474e-05,-4.378609035326087e-07
0.0005954908288043478,-1.2697966202445651e-05,7.487421450407608e-05,4.1596785835597826e-05,0.000546012546705163,0.00040589705757472825,4.378609035326087e-05,6.130052649456522e-06
0.0006055616295855978,-2.4082349694293478e-05,9.457795516304348e-05,4.991614300271739e-05,0.0005801656971807065,0.00046457041864809783,6.130052649456522e-05,1.0946522588315217e-05
0.0003537916100543478,-3.327742866847826e-05,9.54536769701087e-05,4.8164699388586956e-05,0.0003533537491508152,0.00036254882812499997,5.998694378396739e-05,1.2697966202445651e-05
-7.662565811820652e-05,-2.670951511548913e-05,7.093346637228261e-05,2.977454144021739e-05,-4.55375339673913e-05,0.00010552447775135868,3.1088124150815216e-05,1.1822244395380435e-05
-0.00037305748980978257,-1.2260105298913043e-05,3.1525985054347824e-05,3.5028872282608694e-06,-0.00031219482421875,-0.00012785538383152173,4.378609035326087e-07,8.757218070652174e-06
-0.0004580025050951087,0.0,-6.56791355298913e-06,-1.7076575237771737e-05,-0.0003923233695652174,-0.0002478292713994565,-1.663871433423913e-05,6.130052649456522e-06
-0.0005061672044836957,9.63293987771739e-06,-3.634245499320652e-05,-2.8898819633152172e-05,-0.0004549374787703804,-0.00032445492951766304,-3.240170686141304e-05,3.065026324728261e-06
-0.0005184273097826087,1.663871433423913e-05,-5.692191745923913e-05,-3.590459408967391e-05,-0.00047989555027173913,-0.0003721817680027174,-4.597539487092391e-05,-2.627165421195652e-06
-0.0003739332116168478,2.0141601562499998e-05,-6.56791355298913e-05,-3.7656037703804346e-05,-0.0003480994183084239,-0.00032007632048233693,-4.378609035326087e-05,-5.6921917459239125e-06
-0.00018302585767663042,2.320662788722826e-05,-6.217624830163043e-05,-3.021240234375e-05,-0.00017820938773777174,-0.00020842179008152172,-3.021240234375e-05,4.378609035326087e-07
-0.0001059623386548913,2.583379330842391e-05,-5.7359778362771735e-05,-1.970374065896739e-05,-0.00012303891389266303,-0.00014405623726222825,-2.276876698369565e-05,7.005774456521739e-06
1.7514436141304347e-06,2.2330906080163042e-05,-5.0791864809782605e-05,-7.005774456521739e-06,-3.634245499320652e-05,-7.969068444293477e-05,-1.4449409816576086e-05,7.881496263586956e-06
0.00026315440302309784,1.357368800951087e-05,-2.4958071501358695e-05,1.0070800781249999e-05,0.0002022917374320652,7.837710173233695e-05,5.254330842391304e-06,6.130052649456522e-06
0.000455375339673913,6.56791355298913e-06,1.4449409816576086e-05,2.364448879076087e-05,0.0003835661514945652,0.00024082349694293478,2.276876698369565e-05,3.5028872282608694e-06
0.00047770624575407605,-2.1893045176630435e-06,4.4223951256793476e-05,3.065026324728261e-05,0.00041596785835597825,0.00031131910241168477,3.283956776494565e-05,0.0
0.0005446989639945652,-1.663871433423913e-05,7.049560546875e-05,4.2034646739130435e-05,0.0005118593962296196,0.0003875068996263587,5.210544752038043e-05,1.7514436141304347e-06
0.0006108159604279891,-2.627165421195652e-05,9.983228600543478e-05,5.692191745923913e-05,0.0006169460130774456,0.00048252271569293475,7.399849269701087e-05,9.195078974184782e-06
0.00037524679432744565,-2.627165421195652e-05,0.00010683806046195652,6.130052649456522e-05,0.00042209791100543474,0.00041290283203125,7.049560546875e-05,1.2260105298913043e-05
-9.151292883831521e-05,-2.4958071501358695e-05,7.750137992527173e-05,4.728897758152174e-05,-1.1822244395380435e-05,0.00014186693274456522,4.072106402853261e-05,1.0070800781249999e-05
-0.0004387366253396739,-2.057946246603261e-05,3.065026324728261e-05,1.8828018851902173e-05,-0.0003511644446331522,-0.0001401154891304348,3.5028872282608694e-06,7.005774456521739e-06
-0.0005521425993546196,-5.6921917459239125e-06,-1.5325131623641304e-05,-1.2260105298913043e-05,-0.0004921556555706521,-0.0003108812415081522,-2.977454144021739e-05,0.0
-0.0005355038850203804,9.195078974184782e-06,-5.4732612941576086e-05,-3.634245499320652e-05,-0.0005241195015285325,-0.0003888204823369565,-5.298116932744565e-05,-1.1384383491847825e-05
-0.0004549374787703804,1.2260105298913043e-05,-8.100426715353261e-05,-5.1229725713315214e-05,-0.0004847120202105978,-0.0004019563094429348,-6.305197010869565e-05,-1.970374065896739e-05
-0.00032664423403532607,7.005774456521739e-06,-9.501581606657609e-05,-5.648405655570652e-05,-0.0003791875424592391,-0.00035247802734374997,-6.655485733695651e-05,-2.2330906080163042e-05
-0.00017864724864130434,2.627165421195652e-06,-9.676725968070652e-05,-5.429475203804348e-05,-0.0002368827488111413,-0.0002596515157948369,-6.217624830163043e-05,-2.1017323369565217e-05
-3.1525985054347824e-05,3.940748131793478e-06,-7.969068444293477e-05,-4.509967306385869e-05,-7.969068444293477e-05,-0.00014493195906929346,-4.378609035326087e-05,-1.2697966202445651e-05
0.00011428169582201086,1.0946522588315217e-05,-4.597539487092391e-05,-2.4082349694293478e-05,8.932362432065217e-05,-1.1822244395380435e-05,-1.8390157948369565e-05,-3.065026324728261e-06
0.0002579000721807065,9.63293987771739e-06,-1.0946522588315217e-05,1.313582710597826e-06,0.00025527290675951087,0.00012829324473505435,2.627165421195652e-06,-4.378609035326087e-07
0.0003774360988451087,-3.065026324728261e-06,1.7952297044836957e-05,1.7076575237771737e-05,0.00038093898607336954,0.0002465156886888587,2.276876698369565e-05,8.757218070652174e-07
0.00047683052394701086,-1.2260105298913043e-05,4.947828209918478e-05,2.933668053668478e-05,0.0004750790803328804,0.00033978006114130434,4.509967306385869e-05,8.757218070652174e-06
0.0005810414189877717,-1.313582710597826e-05,8.757218070652174e-05,5.0791864809782605e-05,0.0005687813136888587,0.0004334822944972826,6.524127462635869e-05,2.0141601562499998e-05
0.0005928636633831521,-1.2260105298913043e-05,0.00011822244395380434,6.61169964334239e-05,0.0005679055918817934,0.00047639266304347826,7.356063179347826e-05,2.7585236922554347e-05
0.00034021792204483694,-1.2260105298913043e-05,0.00011778458305027173,5.692191745923913e-05,0.00032138990319293477,0.0003529158882472826,6.04248046875e-05,2.714737601902174e-05
-9.414009425951087e-05,-9.195078974184782e-06,8.406929347826087e-05,2.714737601902174e-05,-7.750137992527173e-05,8.319357167119565e-05,2.8898819633152172e-05,2.1017323369565217e-05
-0.00039845342221467387,-1.313582710597826e-06,3.7656037703804346e-05,-3.940748131793478e-06,-0.0003467858355978261,-0.00015193773352581522,-4.378609035326087e-06,1.4011548913043478e-05
-0.0004882149074388587,8.757218070652174e-06,-5.6921917459239125e-06,-2.4082349694293478e-05,-0.0004304172681725543,-0.00027191162109375,-2.8898819633152172e-05,6.130052649456522e-06
-0.0005315631368885869,1.4887270720108696e-05,-4.8164699388586956e-05,-3.678031589673913e-05,-0.00048646346382472827,-0.00035247802734374997,-4.728897758152174e-05,-3.940748131793478e-06
-0.0005398824940557065,1.663871433423913e-05,-8.363143257472826e-05,-4.8164699388586956e-05,-0.000505729343580163,-0.00040545919667119565,-6.130052649456522e-05,-1.2697966202445651e-05
-0.0003945126740828804,1.7952297044836957e-05,-9.632939877717391e-05,-5.1229725713315214e-05,-0.0003769982379415761,-0.0003542294709578804,-6.392769191576087e-05,-1.7076575237771737e-05
-0.00020404318104619564,1.4449409816576086e-05,-8.844790251358695e-05,-4.291036854619565e-05,-0.0002123625382133152,-0.00024126135784646738,-5.210544752038043e-05,-2.276876698369565e-05
-0.00013092041015625,5.6921917459239125e-06,-7.925282353940217e-05,-3.459101137907609e-05,-0.00015456489894701087,-0.00017383077870244563,-3.5466733186141305e-05,-2.8023097826086955e-05
-2.276876698369565e-05,2.627165421195652e-06,-6.918202275815218e-05,-2.7585236922554347e-05,-4.378609035326087e-05,-9.764298148777174e-05,-2.0141601562499998e-05,-2.1455184273097826e-05
0.00025833793308423914,3.5028872282608694e-06,-4.115892493206522e-05,-8.757218070652174e-06,0.00022856339164402172,7.925282353940217e-05,0.0,-9.63293987771739e-06
0.00047245191491168475,-2.627165421195652e-06,1.313582710597826e-06,1.8390157948369565e-05,0.000425162937330163,0.0002543971849524456,2.5395932404891303e-05,-3.065026324728261e-06
0.0004960964037024456,-1.2260105298913043e-05,3.853175951086956e-05,3.896962041440217e-05,0.00045231031334918475,0.00033233642578124996,4.728897758152174e-05,2.627165421195652e-06
0.0005613376783288043,-1.5325131623641304e-05,7.093346637228261e-05,5.429475203804348e-05,0.0005324388586956521,0.00040633491847826084,6.56791355298913e-05,1.313582710597826e-05
0.000632271144701087,-1.357368800951087e-05,0.00010289731233016304,6.786844004755434e-05,0.0006103780995244565,0.0004794576893682065,7.881496263586956e-05,1.970374065896739e-05
0.0003975777004076087,-1.357368800951087e-05,0.00011034094769021739,6.699271824048912e-05,0.000394950534986413,0.0003892583432404891,7.137132727581522e-05,2.0141601562499998e-05
-6.261410920516304e-05,-1.4449409816576086e-05,7.837710173233695e-05,4.334822944972826e-05,-2.670951511548913e-05,0.00012785538383152173,4.072106402853261e-05,1.5325131623641304e-05
-0.0004019563094429348,-7.881496263586956e-06,3.021240234375e-05,1.1822244395380435e-05,-0.00034065578294836953,-0.00013092041015625,2.627165421195652e-06,7.881496263586956e-06
-0.0005381310504415761,4.816469938858695e-06,-1.0070800781249999e-05,-1.2260105298913043e-05,-0.0004750790803328804,-0.00029424252717391304,-2.8460958729619564e-05,2.1893045176630435e-06
-0.0005665920091711956,1.4011548913043478e-05,-4.291036854619565e-05,-2.977454144021739e-05,-0.00051361083984375,-0.0003743710725203804,-4.8602560292119564e-05,0.0
-0.0005105458135190217,1.4887270720108696e-05,-6.830630095108695e-05,-4.115892493206522e-05,-0.00047726838485054345,-0.00038312829059103257,-5.7359778362771735e-05,-2.1893045176630435e-06
-0.00037612251613451084,1.313582710597826e-05,-8.187998896059783e-05,-4.334822944972826e-05,-0.0003695546025815217,-0.00032927139945652175,-5.7359778362771735e-05,-8.319357167119564e-06
-0.00020798392917798913,1.1384383491847825e-05,-8.144212805706522e-05,-3.7656037703804346e-05,-0.00022987697435461956,-0.00023950991423233694,-4.8164699388586956e-05,-9.195078974184782e-06
-4.115892493206522e-05,7.005774456521739e-06,-6.918202275815218e-05,-2.4082349694293478e-05,-8.757218070652174e-05,-0.00013442329738451087,-3.065026324728261e-05,-4.378609035326087e-07
0.00012128747027853261,-8.757218070652174e-07,-4.8602560292119564e-05,-6.56791355298913e-06,6.524127462635869e-05,-2.1017323369565217e-05,-1.0946522588315217e-05,8.319357167119564e-06
0.00027585236922554346,-7.881496263586956e-06,-2.1017323369565217e-05,6.56791355298913e-06,0.00022549836531929348,9.939442510190217e-05,3.940748131793478e-06,9.195078974184782e-06
0.0003940748131793478,-9.195078974184782e-06,1.0070800781249999e-05,1.926587975543478e-05,0.0003511644446331522,0.00021455184273097826,1.8390157948369565e-05,7.443635360054348e-06
0.00048777704653532605,-8.319357167119564e-06,4.247250764266304e-05,3.3715289572010865e-05,0.0004457423997961956,0.0003156977114470109,3.721817680027174e-05,9.63293987771739e-06
0.0005845443062160326,-1.2260105298913043e-05,7.57499363111413e-05,4.4661812160326084e-05,0.0005455746858016304,0.00041158924932065214,5.692191745923913e-05,1.357368800951087e-05
0.0005801656971807065,-2.1455184273097826e-05,0.00010333517323369564,4.8602560292119564e-05,0.0005552076256793478,0.00045668892238451085,6.655485733695651e-05,1.8390157948369565e-05
0.0003130705460258152,-2.627165421195652e-05,0.00010421089504076086,4.4223951256793476e-05,0.0003174491550611413,0.00034021792204483694,5.7359778362771735e-05,1.7952297044836957e-05
-0.00011515741762907608,-2.1893045176630434e-05,7.093346637228261e-05,2.670951511548913e-05,-7.443635360054348e-05,7.618779721467391e-05,3.240170686141304e-05,1.1384383491847825e-05
-0.00040151844853940214,-1.4011548913043478e-05,2.4520210597826086e-05,0.0,-0.0003384664784307065,-0.00015500275985054347,2.627165421195652e-06,3.5028872282608694e-06
-0.00048296057659646735,-6.130052649456522e-06,-1.751443614130435e-05,-2.1455184273097826e-05,-0.0004181571628736413,-0.00026840873386548914,-2.5395932404891303e-05,-3.5028872282608694e-06
-0.0005276223887567934,6.56791355298913e-06,-5.254330842391304e-05,-3.3715289572010865e-05,-0.0004711383322010869,-0.00034065578294836953,-4.641325577445652e-05,-1.0070800781249999e-05
-0.0005267466669497282,2.4520210597826086e-05,-7.399849269701087e-05,-4.115892493206522e-05,-0.0004812091329823369,-0.0003822525687839674,-5.298116932744565e-05,-8.319357167119564e-06
-0.0003629866890285326,3.283956776494565e-05,-7.618779721467391e-05,-4.291036854619565e-05,-0.00033583931300951083,-0.0003178870159646739,-4.728897758152174e-05,0.0
-0.00016813858695652174,3.021240234375e-05,-6.786844004755434e-05,-3.4153150475543474e-05,-0.00016419783882472825,-0.000201416015625,-3.590459408967391e-05,5.254330842391304e-06
-9.676725968070652e-05,3.196384595788043e-05,-5.7359778362771735e-05,-2.0141601562499998e-05,-0.00010902736497961956,-0.00013880190641983695,-2.5395932404891303e-05,2.627165421195652e-06
2.627165421195652e-05,3.8093898607336954e-05,-4.115892493206522e-05,-3.940748131793478e-06,2.1893045176630435e-06,-5.7797639266304343e-05,-1.1384383491847825e-05,3.5028872282608694e-06
0.0003183248768682065,3.1525985054347824e-05,-1.1384383491847825e-05,1.663871433423913e-05,0.00027191162109375,0.00012785538383152173,1.0946522588315217e-05,1.2697966202445651e-05
0.0005140487007472826,1.1384383491847825e-05,2.364448879076087e-05,3.5466733186141305e-05,0.0004488074261209239,0.00029117750084918477,3.283956776494565e-05,1.5762992527173912e-05
0.0005171137270720108,-6.130052649456522e-06,5.0791864809782605e-05,4.378609035326087e-05,0.0004527481742527174,0.0003428450874660326,4.55375339673913e-05,4.378609035326087e-06
0.0005797278362771739,-1.663871433423913e-05,7.268490998641304e-05,5.210544752038043e-05,0.0005219301970108695,0.00040589705757472825,6.130052649456522e-05,-3.065026324728261e-06
0.0006480341372282609,-3.065026324728261e-05,9.501581606657609e-05,6.699271824048912e-05,0.0006003072987432065,0.00048296057659646735,7.750137992527173e-05,8.757218070652174e-07
0.00039626411769701084,-4.4661812160326084e-05,0.0001007080078125,6.480341372282608e-05,0.00038312829059103257,0.0003844418733016304,6.918202275815218e-05,1.313582710597826e-06
-8.625859799592391e-05,-4.55375339673913e-05,7.137132727581522e-05,3.1525985054347824e-05,-5.254330842391304e-05,0.0001011458687160326,3.459101137907609e-05,-8.319357167119564e-06
-0.0004382987644361413,-3.4153150475543474e-05,1.926587975543478e-05,-1.0070800781249999e-05,-0.0003765603770380435,-0.0001668250042459239,-3.940748131793478e-06,-1.7076575237771737e-05
-0.0005749113663383152,-2.057946246603261e-05,-2.8460958729619564e-05,-3.634245499320652e-05,-0.0005048536217730978,-0.0003178870159646739,-3.678031589673913e-05,-1.8828018851902173e-05
-0.0006029344641644022,-7.443635360054348e-06,-5.954908288043478e-05,-4.904042119565217e-05,-0.0005368174677309783,-0.00039013406504755435,-6.130052649456522e-05,-1.663871433423913e-05
-0.0005446989639945652,5.254330842391304e-06,-7.837710173233695e-05,-5.7797639266304343e-05,-0.0004987235691236413,-0.0004102756666100543,-7.00577445652174e-05,-1.1384383491847825e-05
-0.0003980155613111413,1.5762992527173912e-05,-8.406929347826087e-05,-5.7797639266304343e-05,-0.00038312829059103257,-0.0003638624108355978,-6.56791355298913e-05,-5.6921917459239125e-06
-0.00021411398182744564,2.1893045176630434e-05,-7.57499363111413e-05,-4.4223951256793476e-05,-0.00023031483525815216,-0.00026096509850543476,-5.56083347486413e-05,-8.757218070652174e-07
-3.8093898607336954e-05,1.970374065896739e-05,-6.305197010869565e-05,-2.7585236922554347e-05,-7.969068444293477e-05,-0.00014055335003396738,-4.072106402853261e-05,3.5028872282608694e-06
0.00012128747027853261,1.0070800781249999e-05,-4.772683848505435e-05,-1.663871433423913e-05,6.874416185461957e-05,-2.2330906080163042e-05,-2.0141601562499998e-05,8.757218070652174e-06
0.00026315440302309784,-4.378609035326087e-07,-2.2330906080163042e-05,-5.254330842391304e-06,0.00021980617357336956,0.00010333517323369564,2.1893045176630435e-06,1.0508661684782609e-05
0.0003686788807744565,-4.378609035326087e-06,9.195078974184782e-06,1.4887270720108696e-05,0.00034547225288722824,0.00022462264351222826,2.320662788722826e-05,1.0946522588315217e-05
0.00045668892238451085,-2.1893045176630435e-06,4.334822944972826e-05,3.853175951086956e-05,0.000443115234375,0.00032182776409646737,4.2034646739130435e-05,1.5762992527173912e-05
0.0005591483738111413,-4.378609035326087e-06,8.056640624999999e-05,5.429475203804348e-05,0.000546012546705163,0.0004076485011888587,6.130052649456522e-05,1.926587975543478e-05
0.0005622134001358695,-1.5762992527173912e-05,0.00010858950407608696,6.130052649456522e-05,0.00056396484375,0.0004488074261209239,7.618779721467391e-05,8.757218070652174e-06
0.00030518904976222823,-2.4958071501358695e-05,0.00010552447775135868,5.429475203804348e-05,0.00033014712126358694,0.00033978006114130434,7.137132727581522e-05,-3.5028872282608694e-06
-9.10750679347826e-05,-2.1017323369565217e-05,7.356063179347826e-05,3.065026324728261e-05,-6.217624830163043e-05,8.713431980298913e-05,4.1596785835597826e-05,1.313582710597826e-06
-0.00034021792204483694,-6.56791355298913e-06,3.196384595788043e-05,6.56791355298913e-06,-0.00032226562499999996,-0.00013923976732336957,6.130052649456522e-06,1.2260105298913043e-05
-0.0004190328846807065,7.005774456521739e-06,-9.195078974184782e-06,-8.757218070652174e-06,-0.00040545919667119565,-0.00025833793308423914,-2.1893045176630434e-05,7.881496263586956e-06
-0.0004882149074388587,1.5762992527173912e-05,-4.991614300271739e-05,-2.583379330842391e-05,-0.00047245191491168475,-0.00034021792204483694,-4.685111667798913e-05,-3.5028872282608694e-06
-0.0005101079526154891,2.4520210597826086e-05,-7.706351902173912e-05,-4.0283203124999995e-05,-0.0004925935164741848,-0.0003892583432404891,-5.954908288043478e-05,-9.63293987771739e-06
-0.0003669274371603261,3.3715289572010865e-05,-7.706351902173912e-05,-3.721817680027174e-05,-0.00035247802734374997,-0.00033058498216711953,-5.035400390625e-05,-1.357368800951087e-05
-0.00018477730129076085,3.1525985054347824e-05,-6.305197010869565e-05,-2.627165421195652e-05,-0.0001860908840013587,-0.00021498970363451086,-3.50288722826087e-05,-1.5325131623641304e-05
-0.00010815164317255435,1.970374065896739e-05,-5.867336107336956e-05,-2.364448879076087e-05,-0.00013092041015625,-0.0001501862899116848,-2.7585236922554347e-05,-1.4449409816576086e-05
2.1893045176630434e-05,5.254330842391304e-06,-5.867336107336956e-05,-2.057946246603261e-05,-1.4449409816576086e-05,-7.356063179347826e-05,-1.5325131623641304e-05,-1.4449409816576086e-05
0.0003003725798233696,-9.63293987771739e-06,-3.678031589673913e-05,-1.313582710597826e-06,0.00025089429772418476,0.00010158372961956521,6.56791355298913e-06,-1.4011548913043478e-05
0.00047464121942934783,-1.7952297044836957e-05,2.1893045176630435e-06,2.320662788722826e-05,0.00042122218919836955,0.00026403012483016303,2.670951511548913e-05,-9.63293987771739e-06
0.0004650082795516304,-1.5325131623641304e-05,3.940748131793478e-05,3.7656037703804346e-05,0.000435233738111413,0.00033058498216711953,4.4223951256793476e-05,1.313582710597826e-06
0.0005206166143002717,-1.313582710597826e-05,7.356063179347826e-05,4.947828209918478e-05,0.000521492336107337,0.00040852422299592387,6.436555281929347e-05,1.357368800951087e-05
