-9.063720703124999e-05,-1.313582710597826e-05,5.867336107336956e-05,2.8460958729619564e-05,-7.706351902173912e-05,0.00010377303413722825,3.5466733186141305e-05,4.378609035326087e-07
-0.0001011458687160326,-1.8828018851902173e-05,1.1822244395380435e-05,-4.378609035326087e-07,-0.0003288335385529891,-4.4661812160326084e-05,8.757218070652174e-07,-1.1384383491847825e-05
-9.195078974184782e-05,-2.2330906080163042e-05,-2.7585236922554347e-05,-2.276876698369565e-05,-0.00042691438094429344,-0.00014536981997282609,-2.8460958729619564e-05,-2.1893045176630434e-05
-7.312277088994565e-05,-2.1017323369565217e-05,-6.173838739809782e-05,-3.459101137907609e-05,-0.00044661812160326085,-0.0001974752674932065,-4.8164699388586956e-05,-3.196384595788043e-05
-4.4223951256793476e-05,-1.5762992527173912e-05,-8.363143257472826e-05,-4.115892493206522e-05,-0.00040151844853940214,-0.00020272959833559783,-5.1229725713315214e-05,-3.678031589673913e-05
-3.5028872282608694e-06,-7.005774456521739e-06,-8.275571076766304e-05,-3.984534222146739e-05,-0.00029949685801630433,-0.0001720793350883152,-4.334822944972826e-05,-3.240170686141304e-05
3.853175951086956e-05,2.627165421195652e-06,-6.830630095108695e-05,-2.8460958729619564e-05,-0.00017733366593070652,-0.00012522821841032608,-3.8093898607336954e-05,-2.1893045176630434e-05
6.61169964334239e-05,7.881496263586956e-06,-5.429475203804348e-05,-1.2260105298913043e-05,-5.4732612941576086e-05,-6.743057914402173e-05,-3.065026324728261e-05,-1.0508661684782609e-05
7.793924082880434e-05,8.757218070652174e-06,-3.4153150475543474e-05,3.5028872282608694e-06,7.356063179347826e-05,1.313582710597826e-06,-8.319357167119564e-06,8.757218070652174e-07
8.58207370923913e-05,8.757218070652174e-06,-3.065026324728261e-06,2.0141601562499998e-05,0.00020973537279211956,7.312277088994565e-05,1.8390157948369565e-05,1.4011548913043478e-05
8.58207370923913e-05,6.56791355298913e-06,2.670951511548913e-05,3.634245499320652e-05,0.00033058498216711953,0.00013792618461277173,3.3715289572010865e-05,2.4520210597826086e-05
6.56791355298913e-05,3.065026324728261e-06,5.341903023097826e-05,4.728897758152174e-05,0.00043085512907608696,0.00019791312839673912,3.984534222146739e-05,2.714737601902174e-05
2.977454144021739e-05,-2.627165421195652e-06,7.969068444293477e-05,5.385689113451087e-05,0.0005122972571331521,0.00025352146314538043,5.1229725713315214e-05,2.4520210597826086e-05
-8.757218070652174e-06,-1.1384383491847825e-05,9.457795516304348e-05,5.604619565217391e-05,0.0004860256029211956,0.00027191162109375,6.348983101222826e-05,2.364448879076087e-05
-4.641325577445652e-05,-1.357368800951087e-05,8.363143257472826e-05,4.728897758152174e-05,0.00024476424507472827,0.0002018538765285326,5.341903023097826e-05,2.4958071501358695e-05
-7.180918817934783e-05,-5.254330842391304e-06,5.166758661684782e-05,2.4958071501358695e-05,-0.0001059623386548913,5.604619565217391e-05,2.1017323369565217e-05,2.1455184273097826e-05
-7.57499363111413e-05,0.0,1.2260105298913043e-05,0.0,-0.00033189856487771737,-7.925282353940217e-05,-9.63293987771739e-06,1.1822244395380435e-05
-6.61169964334239e-05,-8.757218070652174e-07,-2.2330906080163042e-05,-2.2330906080163042e-05,-0.00040852422299592387,-0.00016069495159646739,-2.8460958729619564e-05,2.1893045176630435e-06
-5.0791864809782605e-05,8.757218070652174e-07,-5.035400390625e-05,-4.2034646739130435e-05,-0.00045099673063858696,-0.00021061109459918477,-4.072106402853261e-05,-4.378609035326087e-07
-2.4958071501358695e-05,4.378609035326087e-06,-7.137132727581522e-05,-5.035400390625e-05,-0.000425162937330163,-0.00022987697435461956,-4.55375339673913e-05,-3.5028872282608694e-06
3.940748131793478e-06,2.1893045176630435e-06,-7.837710173233695e-05,-4.378609035326087e-05,-0.00028066883916440217,-0.00019659954568614129,-4.247250764266304e-05,-1.2260105298913043e-05
1.8828018851902173e-05,0.0,-7.093346637228261e-05,-3.5466733186141305e-05,-0.00016244639521059782,-0.00014449409816576087,-3.634245499320652e-05,-2.1017323369565217e-05
2.4520210597826086e-05,2.1893045176630435e-06,-6.173838739809782e-05,-2.8898819633152172e-05,-0.00013267185377038043,-0.00011559527853260869,-2.977454144021739e-05,-1.926587975543478e-05
4.115892493206522e-05,4.378609035326087e-06,-4.904042119565217e-05,-1.4449409816576086e-05,-7.005774456521739e-06,-6.699271824048912e-05,-1.620085343070652e-05,-1.1384383491847825e-05
6.04248046875e-05,3.5028872282608694e-06,-1.8390157948369565e-05,7.005774456521739e-06,0.00024169921875,3.7656037703804346e-05,8.757218070652174e-06,-8.757218070652174e-07
5.867336107336956e-05,2.1893045176630435e-06,2.0141601562499998e-05,2.583379330842391e-05,0.0003844418733016304,0.00013792618461277173,3.196384595788043e-05,7.443635360054348e-06
4.509967306385869e-05,-1.313582710597826e-06,4.8164699388586956e-05,3.984534222146739e-05,0.00041071352751358695,0.00019484810207201085,4.509967306385869e-05,1.0508661684782609e-05
3.459101137907609e-05,-8.757218070652174e-06,7.443635360054348e-05,5.298116932744565e-05,0.000501350734544837,0.00025045643682065216,6.04248046875e-05,1.313582710597826e-05
1.4887270720108696e-05,-1.1384383491847825e-05,0.00010289731233016304,6.173838739809782e-05,0.0005425096594769022,0.00028898819633152174,7.706351902173912e-05,2.4082349694293478e-05
-1.7076575237771737e-05,-4.378609035326087e-06,0.00010640019955842391,5.648405655570652e-05,0.0003156977114470109,0.00023119055706521737,7.224704908288043e-05,3.5466733186141305e-05
-3.8093898607336954e-05,4.378609035326087e-06,7.312277088994565e-05,3.7656037703804346e-05,-5.429475203804348e-05,8.53828761888587e-05,4.291036854619565e-05,3.459101137907609e-05
-3.853175951086956e-05,1.0508661684782609e-05,2.933668053668478e-05,1.620085343070652e-05,-0.00031438412873641304,-5.911122197690217e-05,1.0508661684782609e-05,2.364448879076087e-05
-2.4520210597826086e-05,1.357368800951087e-05,-4.816469938858695e-06,-1.313582710597826e-06,-0.00041071352751358695,-0.00014974842900815217,-1.0946522588315217e-05,1.357368800951087e-05
-2.1893045176630435e-06,1.620085343070652e-05,-2.977454144021739e-05,-1.5762992527173912e-05,-0.00041115138841711955,-0.00018652874490489128,-2.4082349694293478e-05,8.319357167119564e-06
1.8828018851902173e-05,2.0141601562499998e-05,-4.728897758152174e-05,-2.4082349694293478e-05,-0.0003643002717391304,-0.00019003163213315218,-3.021240234375e-05,4.378609035326087e-06
3.634245499320652e-05,1.8828018851902173e-05,-5.7359778362771735e-05,-2.320662788722826e-05,-0.0002898639181385869,-0.0001764579441236413,-2.8898819633152172e-05,8.757218070652174e-07
5.1229725713315214e-05,1.1822244395380435e-05,-5.954908288043478e-05,-1.5762992527173912e-05,-0.0001917830757472826,-0.00014493195906929346,-2.4082349694293478e-05,-2.1893045176630435e-06
5.998694378396739e-05,7.881496263586956e-06,-5.254330842391304e-05,-6.56791355298913e-06,-7.531207540760869e-05,-9.238865064538043e-05,-2.0141601562499998e-05,-3.940748131793478e-06
6.392769191576087e-05,5.254330842391304e-06,-3.634245499320652e-05,-1.7514436141304347e-06,5.0791864809782605e-05,-3.021240234375e-05,-1.7952297044836957e-05,-4.816469938858695e-06
6.261410920516304e-05,-2.627165421195652e-06,-1.4011548913043478e-05,-1.313582710597826e-06,0.00017777152683423912,3.3715289572010865e-05,-1.313582710597826e-05,-4.816469938858695e-06
4.378609035326087e-05,-1.4887270720108696e-05,8.757218070652174e-06,-1.313582710597826e-06,0.0002867988918138587,9.939442510190217e-05,-4.378609035326087e-06,-3.940748131793478e-06
7.005774456521739e-06,-2.4520210597826086e-05,2.977454144021739e-05,3.065026324728261e-06,0.00038006326426630435,0.00016025709069293476,9.195078974184782e-06,-5.254330842391304e-06
-2.627165421195652e-05,-2.933668053668478e-05,5.166758661684782e-05,1.620085343070652e-05,0.00046150539232336956,0.00021455184273097826,2.977454144021739e-05,-7.881496263586956e-06
-5.1229725713315214e-05,-2.670951511548913e-05,6.961988366168479e-05,2.8023097826086955e-05,0.0004387366253396739,0.00023600702700407608,4.55375339673913e-05,-5.6921917459239125e-06
-8.012854534646738e-05,-2.2330906080163042e-05,6.830630095108695e-05,2.276876698369565e-05,0.0002066703464673913,0.00017295505689538042,3.984534222146739e-05,-1.7514436141304347e-06
-0.00010640019955842391,-1.970374065896739e-05,3.940748131793478e-05,2.627165421195652e-06,-0.00012172533118206522,3.721817680027174e-05,1.313582710597826e-05,-3.065026324728261e-06
-0.00010683806046195652,-1.1822244395380435e-05,-1.313582710597826e-06,-1.620085343070652e-05,-0.0003235792077105978,-8.406929347826087e-05,-1.8390157948369565e-05,-8.319357167119564e-06
-8.53828761888587e-05,0.0,-3.1525985054347824e-05,-3.065026324728261e-05,-0.000394950534986413,-0.0001563163425611413,-4.0283203124999995e-05,-1.1384383491847825e-05
-6.217624830163043e-05,8.319357167119564e-06,-5.0791864809782605e-05,-4.247250764266304e-05,-0.00044924528702445653,-0.00020842179008152172,-4.772683848505435e-05,-1.0508661684782609e-05
-3.721817680027174e-05,1.751443614130435e-05,-6.56791355298913e-05,-4.378609035326087e-05,-0.0004282279636548913,-0.0002268119480298913,-4.4223951256793476e-05,-5.254330842391304e-06
-3.5028872282608694e-06,2.8023097826086955e-05,-6.743057914402173e-05,-3.1525985054347824e-05,-0.00027059803838315217,-0.00018127441406249998,-3.590459408967391e-05,-4.378609035326087e-07
2.1017323369565217e-05,2.8023097826086955e-05,-5.4732612941576086e-05,-1.7952297044836957e-05,-0.00013048254925271738,-0.00011471955672554347,-2.8460958729619564e-05,0.0
2.627165421195652e-05,2.057946246603261e-05,-4.509967306385869e-05,-1.0070800781249999e-05,-8.625859799592391e-05,-7.881496263586956e-05,-2.276876698369565e-05,-8.757218070652174e-07
3.240170686141304e-05,1.620085343070652e-05,-3.3715289572010865e-05,4.378609035326087e-07,4.1596785835597826e-05,-2.8460958729619564e-05,-8.319357167119564e-06,4.378609035326087e-07
4.772683848505435e-05,9.63293987771739e-06,-2.627165421195652e-06,1.970374065896739e-05,0.00029161536175271736,7.312277088994565e-05,1.8828018851902173e-05,3.065026324728261e-06
5.429475203804348e-05,-1.313582710597826e-06,3.196384595788043e-05,3.240170686141304e-05,0.0004391744862432065,0.00016332211701766304,4.509967306385869e-05,6.130052649456522e-06
4.685111667798913e-05,-7.005774456521739e-06,5.210544752038043e-05,3.459101137907609e-05,0.00046632186226222826,0.0002062324855638587,6.04248046875e-05,1.357368800951087e-05
3.7656037703804346e-05,-5.254330842391304e-06,7.706351902173912e-05,4.378609035326087e-05,0.0005433853812839674,0.00025527290675951087,7.399849269701087e-05,2.276876698369565e-05
2.1455184273097826e-05,-5.254330842391304e-06,0.00010902736497961956,6.261410920516304e-05,0.0005534561820652174,0.0002933668053668478,8.144212805706522e-05,2.670951511548913e-05
-5.6921917459239125e-06,-1.0946522588315217e-05,0.00010990308678668478,6.305197010869565e-05,0.0002903017790421196,0.0002268119480298913,6.392769191576087e-05,2.5395932404891303e-05
-2.933668053668478e-05,-1.5325131623641304e-05,7.049560546875e-05,3.590459408967391e-05,-9.895656419836956e-05,6.786844004755434e-05,2.4958071501358695e-05,1.970374065896739e-05
-3.327742866847826e-05,-1.0508661684782609e-05,2.4082349694293478e-05,3.5028872282608694e-06,-0.00035773235818614127,-7.443635360054348e-05,-1.1384383491847825e-05,9.63293987771739e-06
-2.0141601562499998e-05,-4.378609035326087e-07,-1.0508661684782609e-05,-1.663871433423913e-05,-0.00045449961786684783,-0.00015762992527173911,-3.3715289572010865e-05,-3.5028872282608694e-06
0.0,7.005774456521739e-06,-3.984534222146739e-05,-2.8898819633152172e-05,-0.00046632186226222826,-0.0002071082073709239,-4.641325577445652e-05,-1.4011548913043478e-05
1.751443614130435e-05,1.2260105298913043e-05,-6.173838739809782e-05,-3.896962041440217e-05,-0.0004247250764266304,-0.0002268119480298913,-5.341903023097826e-05,-1.8828018851902173e-05
2.364448879076087e-05,1.4449409816576086e-05,-7.049560546875e-05,-4.55375339673913e-05,-0.00033978006114130434,-0.0002066703464673913,-5.0791864809782605e-05,-2.276876698369565e-05
1.970374065896739e-05,1.4011548913043478e-05,-6.743057914402173e-05,-4.291036854619565e-05,-0.00022330906080163043,-0.00016332211701766304,-4.072106402853261e-05,-3.240170686141304e-05
1.0508661684782609e-05,1.1384383491847825e-05,-5.7797639266304343e-05,-3.021240234375e-05,-8.713431980298913e-05,-0.00010640019955842391,-3.065026324728261e-05,-3.984534222146739e-05
3.940748131793478e-06,6.56791355298913e-06,-4.1596785835597826e-05,-1.5325131623641304e-05,6.130052649456522e-05,-3.065026324728261e-05,-2.0141601562499998e-05,-3.5466733186141305e-05
6.130052649456522e-06,2.1893045176630435e-06,-1.4449409816576086e-05,0.0,0.0002066703464673913,5.0791864809782605e-05,-1.7514436141304347e-06,-2.1017323369565217e-05
1.357368800951087e-05,-8.757218070652174e-07,1.4887270720108696e-05,1.751443614130435e-05,0.0003187627377717391,0.0001160331394361413,2.057946246603261e-05,-6.56791355298913e-06
1.970374065896739e-05,-7.881496263586956e-06,3.8093898607336954e-05,3.1525985054347824e-05,0.00040677277938179344,0.00016945216966711955,3.7656037703804346e-05,4.816469938858695e-06
1.7952297044836957e-05,-1.7076575237771737e-05,5.954908288043478e-05,3.590459408967391e-05,0.0004886527683423912,0.0002268119480298913,4.8164699388586956e-05,1.5325131623641304e-05
1.7514436141304347e-06,-2.1455184273097826e-05,8.012854534646738e-05,3.678031589673913e-05,0.0004693868885869565,0.00025089429772418476,5.867336107336956e-05,2.4082349694293478e-05
-2.8023097826086955e-05,-1.8390157948369565e-05,8.056640624999999e-05,3.678031589673913e-05,0.00023075269616168478,0.00018433944038722826,5.7797639266304343e-05,2.8898819633152172e-05
-5.692191745923913e-05,-7.443635360054348e-06,5.385689113451087e-05,2.714737601902174e-05,-0.00011428169582201086,4.597539487092391e-05,3.327742866847826e-05,2.8023097826086955e-05
-6.830630095108695e-05,6.130052649456522e-06,1.5325131623641304e-05,4.816469938858695e-06,-0.0003262063731317935,-7.750137992527173e-05,0.0,2.1017323369565217e-05
-6.480341372282608e-05,1.313582710597826e-05,-1.8390157948369565e-05,-1.7076575237771737e-05,-0.0003892583432404891,-0.00015062415081521738,-1.8828018851902173e-05,1.313582710597826e-05
-5.429475203804348e-05,1.7076575237771737e-05,-4.378609035326087e-05,-2.627165421195652e-05,-0.0004242872155230978,-0.00019835098930027172,-2.583379330842391e-05,7.005774456521739e-06
-3.4153150475543474e-05,2.2330906080163042e-05,-5.911122197690217e-05,-2.364448879076087e-05,-0.0003945126740828804,-0.00021586542544157607,-2.977454144021739e-05,2.1893045176630435e-06
-5.6921917459239125e-06,2.2330906080163042e-05,-6.348983101222826e-05,-1.970374065896739e-05,-0.0002570243503736413,-0.00018127441406249998,-3.196384595788043e-05,-1.7514436141304347e-06
1.5762992527173912e-05,1.5762992527173912e-05,-6.217624830163043e-05,-2.1893045176630434e-05,-0.00016113281249999998,-0.00013267185377038043,-3.678031589673913e-05,-6.130052649456522e-06
2.4520210597826086e-05,7.881496263586956e-06,-6.217624830163043e-05,-2.5395932404891303e-05,-0.0001501862899116848,-0.00010946522588315217,-3.896962041440217e-05,-1.1822244395380435e-05
3.196384595788043e-05,8.757218070652174e-07,-5.254330842391304e-05,-1.926587975543478e-05,-1.8390157948369565e-05,-6.217624830163043e-05,-2.714737601902174e-05,-1.4887270720108696e-05
4.641325577445652e-05,-5.254330842391304e-06,-2.1893045176630434e-05,-8.757218070652174e-07,0.00024257494055706521,4.072106402853261e-05,-4.378609035326087e-06,-9.63293987771739e-06
5.341903023097826e-05,-1.2260105298913043e-05,1.313582710597826e-05,1.620085343070652e-05,0.0003818147078804348,0.00013004468834918478,1.4887270720108696e-05,-1.313582710597826e-06
4.378609035326087e-05,-1.5325131623641304e-05,3.7656037703804346e-05,2.670951511548913e-05,0.000405021335767663,0.00017426863960597825,3.3715289572010865e-05,0.0
3.196384595788043e-05,-1.0946522588315217e-05,6.130052649456522e-05,3.853175951086956e-05,0.0005022264563519022,0.00022943911345108694,5.604619565217391e-05,4.378609035326087e-07
1.970374065896739e-05,-8.757218070652174e-06,8.58207370923913e-05,5.035400390625e-05,0.000535941745923913,0.00027059803838315217,6.56791355298913e-05,3.5028872282608694e-06
-4.378609035326087e-06,-2.0141601562499998e-05,8.888576341711956e-05,4.685111667798913e-05,0.00028592317000679347,0.00020448104194972826,5.166758661684782e-05,5.6921917459239125e-06
-3.5466733186141305e-05,-3.240170686141304e-05,6.04248046875e-05,2.670951511548913e-05,-9.457795516304348e-05,4.947828209918478e-05,2.4520210597826086e-05,1.313582710597826e-06
-5.385689113451087e-05,-2.364448879076087e-05,1.7952297044836957e-05,4.378609035326087e-06,-0.00033978006114130434,-9.195078974184782e-05,-8.757218070652174e-07,-5.254330842391304e-06
-5.254330842391304e-05,-3.065026324728261e-06,-1.7952297044836957e-05,-1.1822244395380435e-05,-0.00042603865913722825,-0.00017996083135190217,-1.970374065896739e-05,-7.881496263586956e-06
-3.459101137907609e-05,7.443635360054348e-06,-4.378609035326087e-05,-2.276876698369565e-05,-0.00043304443359375,-0.00022111975628396737,-3.1525985054347824e-05,-4.378609035326087e-06
-9.195078974184782e-06,8.757218070652174e-06,-6.217624830163043e-05,-2.5395932404891303e-05,-0.0003796254033627717,-0.00021849259086277172,-3.940748131793478e-05,-1.313582710597826e-06
1.313582710597826e-05,1.2260105298913043e-05,-7.00577445652174e-05,-2.1455184273097826e-05,-0.0002771659519361413,-0.00018521516219429347,-3.8093898607336954e-05,-1.7514436141304347e-06
2.8898819633152172e-05,1.357368800951087e-05,-6.436555281929347e-05,-1.2697966202445651e-05,-0.00016025709069293476,-0.00013967762822690217,-2.1893045176630434e-05,-8.757218070652174e-07
4.115892493206522e-05,8.757218070652174e-06,-4.947828209918478e-05,-8.757218070652174e-07,-4.0283203124999995e-05,-8.713431980298913e-05,-3.940748131793478e-06,4.378609035326087e-06
5.298116932744565e-05,6.56791355298913e-06,-2.670951511548913e-05,1.0508661684782609e-05,9.282651154891303e-05,-2.320662788722826e-05,4.378609035326087e-06,1.2697966202445651e-05
5.56083347486413e-05,9.63293987771739e-06,1.7514436141304347e-06,2.1893045176630434e-05,0.00023337986158288043,5.56083347486413e-05,1.663871433423913e-05,1.970374065896739e-05
4.772683848505435e-05,1.1384383491847825e-05,3.065026324728261e-05,3.459101137907609e-05,0.0003485372792119565,0.00013573688009510868,3.678031589673913e-05,2.1455184273097826e-05
3.896962041440217e-05,1.0070800781249999e-05,5.7359778362771735e-05,4.378609035326087e-05,0.00043698518172554345,0.00019791312839673912,4.904042119565217e-05,2.057946246603261e-05
2.977454144021739e-05,6.56791355298913e-06,8.53828761888587e-05,4.685111667798913e-05,0.0005096700917119565,0.00024345066236413043,5.604619565217391e-05,2.4520210597826086e-05
9.63293987771739e-06,0.0,0.00010333517323369564,4.55375339673913e-05,0.00046982474949048913,0.00025395932404891303,6.699271824048912e-05,3.1525985054347824e-05
-2.4958071501358695e-05,-3.940748131793478e-06,9.54536769701087e-05,3.853175951086956e-05,0.00021061109459918477,0.00018127441406249998,6.436555281929347e-05,3.196384595788043e-05
-6.086266559103261e-05,0.0,6.086266559103261e-05,1.8828018851902173e-05,-0.00013573688009510868,3.5466733186141305e-05,3.459101137907609e-05,2.364448879076087e-05
-7.312277088994565e-05,6.56791355298913e-06,1.7076575237771737e-05,-5.6921917459239125e-06,-0.0003410936438519022,-9.720512058423913e-05,-1.7514436141304347e-06,1.357368800951087e-05
-6.04248046875e-05,7.005774456521739e-06,-1.8390157948369565e-05,-2.4958071501358695e-05,-0.0004185950237771739,-0.0001808365531589674,-2.670951511548913e-05,3.940748131793478e-06
-3.940748131793478e-05,7.443635360054348e-06,-4.772683848505435e-05,-3.853175951086956e-05,-0.0004860256029211956,-0.00023950991423233694,-4.2034646739130435e-05,-4.378609035326087e-06
-1.357368800951087e-05,1.2697966202445651e-05,-7.180918817934783e-05,-4.597539487092391e-05,-0.00046763544497282605,-0.00026315440302309784,-4.904042119565217e-05,-1.1822244395380435e-05
1.7952297044836957e-05,1.2260105298913043e-05,-7.837710173233695e-05,-4.072106402853261e-05,-0.00030606477156929347,-0.00022068189538043478,-4.597539487092391e-05,-1.663871433423913e-05
3.984534222146739e-05,8.319357167119564e-06,-6.918202275815218e-05,-2.8898819633152172e-05,-0.00017339291779891304,-0.0001567542034646739,-3.8093898607336954e-05,-1.751443614130435e-05
4.685111667798913e-05,9.195078974184782e-06,-5.954908288043478e-05,-2.364448879076087e-05,-0.0001313582710597826,-0.00011909816576086957,-2.7585236922554347e-05,-1.751443614130435e-05
5.0791864809782605e-05,1.2260105298913043e-05,-4.2034646739130435e-05,-1.8390157948369565e-05,1.7952297044836957e-05,-5.166758661684782e-05,-1.4887270720108696e-05,-1.620085343070652e-05
4.904042119565217e-05,7.005774456521739e-06,-7.005774456521739e-06,4.378609035326087e-07,0.00027891739555027174,7.706351902173912e-05,0.0,-1.0070800781249999e-05
3.1088124150815216e-05,-3.940748131793478e-06,2.5395932404891303e-05,1.970374065896739e-05,0.0004098378057065217,0.00018039869225543477,1.8828018851902173e-05,-1.313582710597826e-06
1.357368800951087e-05,-1.2697966202445651e-05,4.55375339673913e-05,3.065026324728261e-05,0.0004343580163043478,0.00022593622622282608,3.896962041440217e-05,3.5028872282608694e-06
1.7952297044836957e-05,-1.8390157948369565e-05,7.224704908288043e-05,4.772683848505435e-05,0.0005306874150815217,0.0002881124745244565,5.604619565217391e-05,7.005774456521739e-06
2.8898819633152172e-05,-2.5395932404891303e-05,9.895656419836956e-05,6.348983101222826e-05,0.0005499532948369566,0.00033934220023777175,6.261410920516304e-05,9.63293987771739e-06
1.926587975543478e-05,-2.8898819633152172e-05,9.151292883831521e-05,5.4732612941576086e-05,0.00028417172639266303,0.0002649058466372283,5.254330842391304e-05,8.757218070652174e-06
-6.56791355298913e-06,-2.364448879076087e-05,5.1229725713315214e-05,2.977454144021739e-05,-0.00010683806046195652,8.58207370923913e-05,3.065026324728261e-05,7.443635360054348e-06
-2.320662788722826e-05,-1.1822244395380435e-05,7.881496263586956e-06,8.319357167119564e-06,-0.00036473813264266305,-7.662565811820652e-05,3.940748131793478e-06,7.443635360054348e-06
-1.8390157948369565e-05,1.313582710597826e-06,-2.320662788722826e-05,-9.195078974184782e-06,-0.0004505588697350543,-0.0001663871433423913,-2.1893045176630434e-05,4.816469938858695e-06
-9.195078974184782e-06,1.313582710597826e-05,-4.334822944972826e-05,-2.2330906080163042e-05,-0.0004387366253396739,-0.00019966457201086956,-3.50288722826087e-05,0.0
-1.4011548913043478e-05,1.926587975543478e-05,-5.5170473845108694e-05,-2.627165421195652e-05,-0.0003769982379415761,-0.0002009781547214674,-3.327742866847826e-05,-4.816469938858695e-06
-2.4082349694293478e-05,2.0141601562499998e-05,-6.217624830163043e-05,-2.7585236922554347e-05,-0.0002850474481997282,-0.00018258799677309782,-3.196384595788043e-05,-1.2260105298913043e-05
-2.4958071501358695e-05,1.5762992527173912e-05,-5.998694378396739e-05,-2.8023097826086955e-05,-0.0001707657523777174,-0.0001409912109375,-2.670951511548913e-05,-1.8828018851902173e-05
-1.5762992527173912e-05,9.195078974184782e-06,-4.378609035326087e-05,-2.364448879076087e-05,-3.4153150475543474e-05,-7.57499363111413e-05,-1.2260105298913043e-05,-1.8828018851902173e-05
3.065026324728261e-06,7.443635360054348e-06,-2.057946246603261e-05,-1.357368800951087e-05,0.00011515741762907608,-2.627165421195652e-06,-8.757218070652174e-07,-1.2260105298913043e-05
3.065026324728261e-05,8.757218070652174e-06,3.065026324728261e-06,1.313582710597826e-06,0.00024826713230298913,7.00577445652174e-05,8.757218070652174e-06,-1.7514436141304347e-06
5.341903023097826e-05,4.378609035326087e-06,2.714737601902174e-05,1.926587975543478e-05,0.00034196936565896737,0.0001401154891304348,2.8898819633152172e-05,9.195078974184782e-06
6.217624830163043e-05,-6.56791355298913e-06,4.772683848505435e-05,3.8093898607336954e-05,0.0004299794072690217,0.00020448104194972826,4.772683848505435e-05,1.5325131623641304e-05
5.692191745923913e-05,-2.2330906080163042e-05,6.699271824048912e-05,5.341903023097826e-05,0.0005193030315896738,0.00026008937669836957,5.56083347486413e-05,1.4449409816576086e-05
2.8460958729619564e-05,-3.7656037703804346e-05,8.319357167119565e-05,5.604619565217391e-05,0.0004650082795516304,0.00026621942934782606,5.4732612941576086e-05,1.313582710597826e-05
-2.933668053668478e-05,-4.4661812160326084e-05,7.750137992527173e-05,3.634245499320652e-05,0.0001567542034646739,0.0001655114215353261,3.5466733186141305e-05,6.130052649456522e-06
-8.494501528532609e-05,-3.7656037703804346e-05,4.1596785835597826e-05,8.757218070652174e-07,-0.00021805472995923913,-7.443635360054348e-06,0.0,-8.319357167119564e-06
-0.00010158372961956521,-2.276876698369565e-05,-3.065026324728261e-06,-2.627165421195652e-05,-0.0004037077530570652,-0.00014449409816576087,-2.627165421195652e-05,-1.7076575237771737e-05
-8.844790251358695e-05,-9.195078974184782e-06,-3.590459408967391e-05,-3.590459408967391e-05,-0.00044618026069972826,-0.00021367612092391305,-3.8093898607336954e-05,-1.751443614130435e-05
-6.61169964334239e-05,1.313582710597826e-06,-5.911122197690217e-05,-3.984534222146739e-05,-0.00048646346382472827,-0.0002574622112771739,-4.947828209918478e-05,-1.8390157948369565e-05
-3.283956776494565e-05,9.63293987771739e-06,-7.443635360054348e-05,-4.1596785835597826e-05,-0.0004404880689538043,-0.0002670951511548913,-5.4732612941576086e-05,-1.751443614130435e-05
4.816469938858695e-06,1.2260105298913043e-05,-7.443635360054348e-05,-3.065026324728261e-05,-0.0002565864894701087,-0.0002123625382133152,-4.1596785835597826e-05,-1.1384383491847825e-05
2.933668053668478e-05,1.357368800951087e-05,-6.480341372282608e-05,-1.2260105298913043e-05,-0.0001221631920855978,-0.0001366126019021739,-2.364448879076087e-05,-5.6921917459239125e-06
3.940748131793478e-05,1.663871433423913e-05,-5.648405655570652e-05,0.0,-8.494501528532609e-05,-8.363143257472826e-05,-1.357368800951087e-05,-1.7514436141304347e-06
5.210544752038043e-05,1.5325131623641304e-05,-3.50288722826087e-05,7.005774456521739e-06,7.662565811820652e-05,-4.378609035326087e-06,-1.7514436141304347e-06,6.56791355298913e-06
6.786844004755434e-05,9.195078974184782e-06,2.627165421195652e-06,1.4011548913043478e-05,0.00035729449728260867,0.00013310971467391303,1.751443614130435e-05,1.4449409816576086e-05
7.049560546875e-05,6.56791355298913e-06,3.634245499320652e-05,2.0141601562499998e-05,0.0004943449600883152,0.00025089429772418476,3.678031589673913e-05,1.2697966202445651e-05
5.7359778362771735e-05,3.940748131793478e-06,5.998694378396739e-05,2.977454144021739e-05,0.0005175515879755435,0.00030956765879755434,5.035400390625e-05,1.0946522588315217e-05
4.1596785835597826e-05,-4.816469938858695e-06,8.801004161005434e-05,4.1596785835597826e-05,0.0006108159604279891,0.0003686788807744565,6.392769191576087e-05,1.970374065896739e-05
2.276876698369565e-05,-1.5325131623641304e-05,0.00011296811311141304,4.334822944972826e-05,0.0005981179942255435,0.0004037077530570652,7.00577445652174e-05,2.670951511548913e-05
-6.130052649456522e-06,-1.751443614130435e-05,0.00011077880859375,3.1088124150815216e-05,0.00027585236922554346,0.00031175696331521736,5.429475203804348e-05,2.057946246603261e-05
-3.940748131793478e-05,-1.0508661684782609e-05,7.487421450407608e-05,9.63293987771739e-06,-0.0001414290718410326,0.0001160331394361413,2.1455184273097826e-05,1.2697966202445651e-05
-5.998694378396739e-05,4.378609035326087e-07,2.627165421195652e-05,-1.970374065896739e-05,-0.0003936369522758152,-6.130052649456522e-05,-1.0070800781249999e-05,1.0070800781249999e-05
-6.348983101222826e-05,1.0070800781249999e-05,-1.1822244395380435e-05,-4.947828209918478e-05,-0.0004899663510529891,-0.00017032789147418477,-3.50288722826087e-05,1.7514436141304347e-06
-5.954908288043478e-05,1.663871433423913e-05,-3.8093898607336954e-05,-6.392769191576087e-05,-0.0005035400390625,-0.00022943911345108694,-5.385689113451087e-05,-1.313582710597826e-05
-5.210544752038043e-05,1.8390157948369565e-05,-6.130052649456522e-05,-6.436555281929347e-05,-0.00044092592985733696,-0.00024476424507472827,-6.305197010869565e-05,-1.970374065896739e-05
-2.933668053668478e-05,1.313582710597826e-05,-7.618779721467391e-05,-5.867336107336956e-05,-0.00032401706861413045,-0.00021542756453804348,-5.823550016983695e-05,-1.8390157948369565e-05
8.757218070652174e-06,2.1893045176630435e-06,-7.662565811820652e-05,-4.55375339673913e-05,-0.00018828018851902174,-0.00015806778617527174,-4.378609035326087e-05,-2.0141601562499998e-05
4.55375339673913e-05,-4.816469938858695e-06,-6.436555281929347e-05,-2.670951511548913e-05,-4.509967306385869e-05,-9.063720703124999e-05,-2.627165421195652e-05,-1.8828018851902173e-05
7.180918817934783e-05,-5.6921917459239125e-06,-4.641325577445652e-05,-7.443635360054348e-06,0.00010202159052309782,-1.4887270720108696e-05,-1.0070800781249999e-05,-5.6921917459239125e-06
8.801004161005434e-05,-4.816469938858695e-06,-2.4958071501358695e-05,1.0508661684782609e-05,0.0002368827488111413,6.874416185461957e-05,5.254330842391304e-06,1.0508661684782609e-05
9.063720703124999e-05,-5.254330842391304e-06,6.56791355298913e-06,3.065026324728261e-05,0.00034240722656249997,0.00014843484629755433,2.1893045176630434e-05,2.057946246603261e-05
8.056640624999999e-05,-2.627165421195652e-06,4.772683848505435e-05,4.728897758152174e-05,0.00043654732082201085,0.00021980617357336956,4.115892493206522e-05,2.4520210597826086e-05
6.217624830163043e-05,3.065026324728261e-06,8.450715438179348e-05,5.911122197690217e-05,0.0005175515879755435,0.0002797931173573369,5.998694378396739e-05,2.7585236922554347e-05
3.021240234375e-05,1.7514436141304347e-06,9.939442510190217e-05,6.480341372282608e-05,0.0004685111667798913,0.0002850474481997282,6.874416185461957e-05,2.977454144021739e-05
-2.1893045176630434e-05,-6.56791355298913e-06,8.494501528532609e-05,5.56083347486413e-05,0.00018915591032608696,0.00018258799677309782,5.648405655570652e-05,2.4082349694293478e-05
-8.100426715353261e-05,-9.195078974184782e-06,4.947828209918478e-05,2.583379330842391e-05,-0.00016901430876358696,7.881496263586956e-06,2.583379330842391e-05,6.56791355298913e-06
-0.00011428169582201086,-7.005774456521739e-06,1.1384383491847825e-05,-8.757218070652174e-06,-0.0003695546025815217,-0.00013573688009510868,-3.065026324728261e-06,-1.313582710597826e-05
-0.00010640019955842391,-7.881496263586956e-06,-2.1017323369565217e-05,-2.933668053668478e-05,-0.000425162937330163,-0.00021455184273097826,-2.1017323369565217e-05,-2.4082349694293478e-05
-7.925282353940217e-05,-5.6921917459239125e-06,-4.947828209918478e-05,-3.7656037703804346e-05,-0.00046150539232336956,-0.00026359226392663043,-3.50288722826087e-05,-2.714737601902174e-05
-5.0791864809782605e-05,2.1893045176630435e-06,-6.830630095108695e-05,-4.0283203124999995e-05,-0.0004190328846807065,-0.00027585236922554346,-4.597539487092391e-05,-2.364448879076087e-05
-1.926587975543478e-05,6.56791355298913e-06,-7.268490998641304e-05,-3.3715289572010865e-05,-0.00025308360224184784,-0.00022549836531929348,-4.115892493206522e-05,-1.4887270720108696e-05
7.005774456521739e-06,3.065026324728261e-06,-7.049560546875e-05,-2.2330906080163042e-05,-0.00013486115828804346,-0.00015806778617527174,-2.5395932404891303e-05,-9.195078974184782e-06
1.2260105298913043e-05,-1.313582710597826e-06,-6.655485733695651e-05,-1.8390157948369565e-05,-0.00010683806046195652,-0.0001164710003396739,-1.4887270720108696e-05,-1.4011548913043478e-05
7.443635360054348e-06,-5.6921917459239125e-06,-4.991614300271739e-05,-1.4449409816576086e-05,5.298116932744565e-05,-4.072106402853261e-05,-6.56791355298913e-06,-2.1893045176630434e-05
1.4011548913043478e-05,-7.881496263586956e-06,-1.357368800951087e-05,3.065026324728261e-06,0.00032970926036005434,9.764298148777174e-05,1.0070800781249999e-05,-1.7952297044836957e-05
2.1893045176630434e-05,-5.254330842391304e-06,2.1455184273097826e-05,2.583379330842391e-05,0.00044180165166440215,0.00020579462466032607,2.8460958729619564e-05,-5.254330842391304e-06
2.276876698369565e-05,-1.7514436141304347e-06,4.509967306385869e-05,3.896962041440217e-05,0.00043304443359375,0.00024958071501358697,4.4661812160326084e-05,2.627165421195652e-06
3.240170686141304e-05,-7.005774456521739e-06,7.180918817934783e-05,4.991614300271739e-05,0.0005267466669497282,0.00030475118885869563,6.305197010869565e-05,7.881496263586956e-06
4.0283203124999995e-05,-1.357368800951087e-05,9.983228600543478e-05,5.7359778362771735e-05,0.0005477639903192934,0.00034547225288722824,6.961988366168479e-05,1.663871433423913e-05
1.4011548913043478e-05,-1.2697966202445651e-05,0.0001007080078125,4.597539487092391e-05,0.0002469535495923913,0.00025527290675951087,5.254330842391304e-05,2.057946246603261e-05
-3.7656037703804346e-05,-1.0946522588315217e-05,6.261410920516304e-05,1.7076575237771737e-05,-0.00018039869225543477,5.604619565217391e-05,2.1455184273097826e-05,1.2260105298913043e-05
-7.706351902173912e-05,-1.313582710597826e-05,8.319357167119564e-06,-1.0946522588315217e-05,-0.0004382987644361413,-0.00012347677479619565,-1.1822244395380435e-05,-1.313582710597826e-06
-8.275571076766304e-05,-8.757218070652174e-06,-3.459101137907609e-05,-2.8898819633152172e-05,-0.0005118593962296196,-0.00022900125254755435,-4.0283203124999995e-05,-1.4449409816576086e-05
-6.173838739809782e-05,4.816469938858695e-06,-5.867336107336956e-05,-3.721817680027174e-05,-0.0005026643172554348,-0.00027366306470788044,-5.429475203804348e-05,-2.5395932404891303e-05
-3.240170686141304e-05,1.5762992527173912e-05,-7.00577445652174e-05,-3.984534222146739e-05,-0.0004382987644361413,-0.0002723494819972826,-5.385689113451087e-05,-2.714737601902174e-05
-7.443635360054348e-06,1.8390157948369565e-05,-7.268490998641304e-05,-3.590459408967391e-05,-0.00032138990319293477,-0.00023469344429347824,-4.904042119565217e-05,-1.663871433423913e-05
1.313582710597826e-05,1.8390157948369565e-05,-6.305197010869565e-05,-2.4958071501358695e-05,-0.0001764579441236413,-0.00017383077870244563,-3.940748131793478e-05,-5.6921917459239125e-06
3.1088124150815216e-05,1.926587975543478e-05,-4.641325577445652e-05,-1.1822244395380435e-05,-3.196384595788043e-05,-9.983228600543478e-05,-2.320662788722826e-05,-1.313582710597826e-06
4.509967306385869e-05,1.751443614130435e-05,-3.1525985054347824e-05,8.757218070652174e-07,0.0001059623386548913,-1.926587975543478e-05,-5.254330842391304e-06,2.627165421195652e-06
5.7797639266304343e-05,9.63293987771739e-06,-1.0070800781249999e-05,1.8828018851902173e-05,0.0002443263841711956,6.348983101222826e-05,8.757218070652174e-06,8.319357167119564e-06
6.436555281929347e-05,-8.757218070652174e-07,2.4082349694293478e-05,3.7656037703804346e-05,0.00037043032438858694,0.00014274265455163044,2.4958071501358695e-05,1.0070800781249999e-05
5.604619565217391e-05,-1.2260105298913043e-05,5.867336107336956e-05,4.8602560292119564e-05,0.000485587742017663,0.00021805472995923913,4.55375339673913e-05,1.1384383491847825e-05
3.853175951086956e-05,-2.320662788722826e-05,8.625859799592391e-05,5.429475203804348e-05,0.0005766628099524456,0.0002867988918138587,6.217624830163043e-05,1.4449409816576086e-05
1.2697966202445651e-05,-3.240170686141304e-05,0.00010333517323369564,5.604619565217391e-05,0.0005171137270720108,0.00029993471891983693,6.56791355298913e-05,1.313582710597826e-05
-3.065026324728261e-05,-3.240170686141304e-05,9.414009425951087e-05,4.509967306385869e-05,0.00020842179008152172,0.0001917830757472826,5.385689113451087e-05,6.56791355298913e-06
-8.056640624999999e-05,-1.970374065896739e-05,5.7797639266304343e-05,2.057946246603261e-05,-0.0001716414741847826,-3.065026324728261e-06,3.196384595788043e-05,2.1893045176630435e-06
-0.00011165453040081521,-2.1893045176630435e-06,1.5762992527173912e-05,-2.627165421195652e-06,-0.0003787496815557065,-0.00016419783882472825,6.56791355298913e-06,0.0
-0.000120849609375,7.443635360054348e-06,-1.926587975543478e-05,-1.7952297044836957e-05,-0.00044749384341032604,-0.00024345066236413043,-2.1017323369565217e-05,-2.627165421195652e-06
-0.00011515741762907608,1.0508661684782609e-05,-4.728897758152174e-05,-3.1088124150815216e-05,-0.0004978478473165761,-0.00028855033542798914,-4.334822944972826e-05,-3.5028872282608694e-06
-9.063720703124999e-05,1.620085343070652e-05,-6.480341372282608e-05,-4.072106402853261e-05,-0.0004488074261209239,-0.00029905899711277174,-4.685111667798913e-05,-2.1893045176630435e-06
-4.947828209918478e-05,2.1017323369565217e-05,-7.093346637228261e-05,-3.853175951086956e-05,-0.00026578156844429346,-0.00024345066236413043,-3.721817680027174e-05,-7.443635360054348e-06
-1.1384383491847825e-05,1.5325131623641304e-05,-7.180918817934783e-05,-2.8460958729619564e-05,-0.00013748832370923914,-0.00017251719599184782,-3.327742866847826e-05,-1.4887270720108696e-05
1.663871433423913e-05,4.816469938858695e-06,-7.137132727581522e-05,-2.1455184273097826e-05,-0.00010333517323369564,-0.0001322339928668478,-3.240170686141304e-05,-7.443635360054348e-06
4.8602560292119564e-05,-2.1893045176630435e-06,-5.7359778362771735e-05,-1.4011548913043478e-05,5.298116932744565e-05,-5.341903023097826e-05,-1.620085343070652e-05,3.940748131793478e-06
8.58207370923913e-05,-7.005774456521739e-06,-2.4082349694293478e-05,3.940748131793478e-06,0.00031525985054347823,9.10750679347826e-05,1.1384383491847825e-05,2.627165421195652e-06
0.00011296811311141304,-1.1384383491847825e-05,1.0508661684782609e-05,2.627165421195652e-05,0.0004343580163043478,0.00020579462466032607,3.4153150475543474e-05,0.0
0.00012697966202445651,-1.663871433423913e-05,3.896962041440217e-05,4.378609035326087e-05,0.0004632568359375,0.00026578156844429346,4.947828209918478e-05,7.443635360054348e-06
0.0001409912109375,-2.0141601562499998e-05,7.662565811820652e-05,5.7797639266304343e-05,0.0005771006708559783,0.0003380286175271739,6.392769191576087e-05,1.926587975543478e-05
0.00014230479364809781,-1.7952297044836957e-05,0.00011296811311141304,6.217624830163043e-05,0.000578414253566576,0.00037480893342391305,6.918202275815218e-05,3.1088124150815216e-05
0.00010245945142663043,-6.130052649456522e-06,0.00010946522588315217,4.685111667798913e-05,0.00026359226392663043,0.0002679708729619565,5.604619565217391e-05,3.50288722826087e-05
3.1525985054347824e-05,8.319357167119564e-06,6.699271824048912e-05,2.0141601562499998e-05,-0.0001554406207540761,5.692191745923913e-05,2.933668053668478e-05,2.1455184273097826e-05
-2.4958071501358695e-05,1.5762992527173912e-05,2.276876698369565e-05,-2.1893045176630435e-06,-0.0004032698921535326,-0.00012741752292798914,-8.757218070652174e-07,4.378609035326087e-06
-4.509967306385869e-05,1.751443614130435e-05,-1.0508661684782609e-05,-1.751443614130435e-05,-0.00047157619310461956,-0.00023075269616168478,-2.5395932404891303e-05,-1.313582710597826e-06
-4.115892493206522e-05,2.1455184273097826e-05,-4.2034646739130435e-05,-2.714737601902174e-05,-0.0004588782269021739,-0.00026840873386548914,-3.896962041440217e-05,-7.881496263586956e-06
-2.7585236922554347e-05,2.057946246603261e-05,-6.524127462635869e-05,-2.977454144021739e-05,-0.00040064272673233695,-0.00026052723760190216,-4.597539487092391e-05,-1.926587975543478e-05
-9.63293987771739e-06,1.0946522588315217e-05,-7.049560546875e-05,-2.8023097826086955e-05,-0.0002977454144021739,-0.0002219954780910326,-4.772683848505435e-05,-2.1017323369565217e-05
5.254330842391304e-06,6.56791355298913e-06,-6.130052649456522e-05,-2.4958071501358695e-05,-0.00016901430876358696,-0.00016419783882472825,-3.984534222146739e-05,-1.4449409816576086e-05
1.5762992527173912e-05,9.63293987771739e-06,-4.904042119565217e-05,-2.1017323369565217e-05,-3.590459408967391e-05,-9.326437245244564e-05,-2.670951511548913e-05,-1.0508661684782609e-05
3.065026324728261e-05,4.378609035326087e-06,-3.459101137907609e-05,-1.1822244395380435e-05,0.00010333517323369564,-1.0508661684782609e-05,-1.313582710597826e-05,-8.757218070652174e-06
5.166758661684782e-05,-8.319357167119564e-06,-1.0070800781249999e-05,1.313582710597826e-06,0.0002443263841711956,7.881496263586956e-05,2.1893045176630435e-06,-7.005774456521739e-06
5.911122197690217e-05,-1.7076575237771737e-05,2.1893045176630434e-05,1.4011548913043478e-05,0.00035554305366847824,0.00015981922978940217,2.1455184273097826e-05,-3.5028872282608694e-06
4.597539487092391e-05,-2.057946246603261e-05,4.947828209918478e-05,2.7585236922554347e-05,0.000445304538892663,0.00022943911345108694,3.896962041440217e-05,8.757218070652174e-07
3.327742866847826e-05,-2.4958071501358695e-05,7.443635360054348e-05,4.247250764266304e-05,0.0005241195015285325,0.00029599397078804347,4.991614300271739e-05,4.816469938858695e-06
1.926587975543478e-05,-3.021240234375e-05,9.58915378736413e-05,4.8602560292119564e-05,0.0004781441066576087,0.00031175696331521736,5.692191745923913e-05,9.195078974184782e-06
-2.4520210597826086e-05,-2.8898819633152172e-05,9.151292883831521e-05,3.721817680027174e-05,0.00019659954568614129,0.0001970374065896739,5.341903023097826e-05,1.4449409816576086e-05
-8.801004161005434e-05,-1.620085343070652e-05,5.385689113451087e-05,1.4449409816576086e-05,-0.00016594928243885868,-1.0508661684782609e-05,3.065026324728261e-05,1.357368800951087e-05
-0.00012347677479619565,-4.378609035326087e-07,8.757218070652174e-06,-7.443635360054348e-06,-0.0003682410198709239,-0.00017383077870244563,-1.7514436141304347e-06,5.6921917459239125e-06
-0.0001261039402173913,7.005774456521739e-06,-2.8460958729619564e-05,-2.4520210597826086e-05,-0.0004334822944972826,-0.00025308360224184784,-3.065026324728261e-05,-2.1893045176630435e-06
-0.0001221631920855978,1.0508661684782609e-05,-6.130052649456522e-05,-3.853175951086956e-05,-0.0004803334111752717,-0.00029949685801630433,-5.035400390625e-05,-7.443635360054348e-06
-0.00010683806046195652,1.970374065896739e-05,-8.144212805706522e-05,-4.4661812160326084e-05,-0.00043173085088315215,-0.0002977454144021739,-5.5170473845108694e-05,-1.2697966202445651e-05
-6.830630095108695e-05,2.5395932404891303e-05,-7.969068444293477e-05,-3.853175951086956e-05,-0.00025483504585597827,-0.0002171790081521739,-4.55375339673913e-05,-1.7952297044836957e-05
-2.714737601902174e-05,2.1893045176630434e-05,-6.874416185461957e-05,-2.933668053668478e-05,-0.00013529901919157608,-0.00012697966202445651,-3.3715289572010865e-05,-1.663871433423913e-05
-1.7514436141304347e-06,1.7952297044836957e-05,-6.04248046875e-05,-2.4520210597826086e-05,-0.00010771378226902174,-7.793924082880434e-05,-2.7585236922554347e-05,-1.2260105298913043e-05
2.7585236922554347e-05,1.5325131623641304e-05,-4.291036854619565e-05,-1.4011548913043478e-05,5.0791864809782605e-05,9.63293987771739e-06,-1.8828018851902173e-05,-9.63293987771739e-06
7.487421450407608e-05,3.940748131793478e-06,-1.0508661684782609e-05,4.816469938858695e-06,0.00032401706861413045,0.00016945216966711955,2.1893045176630435e-06,-8.319357167119564e-06
0.00011384383491847825,-9.63293987771739e-06,2.1455184273097826e-05,1.926587975543478e-05,0.000455375339673913,0.0002951182489809782,2.4082349694293478e-05,-3.940748131793478e-06
0.00013004468834918478,-1.7952297044836957e-05,4.947828209918478e-05,3.021240234375e-05,0.0004803334111752717,0.0003516023055366848,3.721817680027174e-05,5.6921917459239125e-06
0.00014274265455163044,-2.1893045176630434e-05,8.319357167119565e-05,5.035400390625e-05,0.0005731599227241848,0.0004137785538383152,5.0791864809782605e-05,1.8390157948369565e-05
0.00013923976732336957,-2.276876698369565e-05,0.00011165453040081521,6.699271824048912e-05,0.000558272652004076,0.00043610945991847826,6.217624830163043e-05,2.670951511548913e-05
8.976148522418478e-05,-2.0141601562499998e-05,0.00010727592136548913,5.648405655570652e-05,0.00024388852326766303,0.00030124830163043477,5.0791864809782605e-05,2.5395932404891303e-05
1.5762992527173912e-05,-1.4449409816576086e-05,6.874416185461957e-05,2.627165421195652e-05,-0.00016726286514945652,5.954908288043478e-05,1.8390157948369565e-05,1.7952297044836957e-05
-3.940748131793478e-05,-4.816469938858695e-06,2.1893045176630434e-05,-4.378609035326087e-07,-0.0004181571628736413,-0.00013705046280570652,-1.313582710597826e-05,1.2697966202445651e-05
-6.61169964334239e-05,7.443635360054348e-06,-1.751443614130435e-05,-2.0141601562499998e-05,-0.0005035400390625,-0.00024257494055706521,-3.4153150475543474e-05,9.63293987771739e-06
-6.961988366168479e-05,1.7952297044836957e-05,-4.947828209918478e-05,-3.50288722826087e-05,-0.0005004750127377717,-0.00028855033542798914,-4.509967306385869e-05,4.816469938858695e-06
-5.7797639266304343e-05,2.1455184273097826e-05,-7.093346637228261e-05,-3.896962041440217e-05,-0.00043085512907608696,-0.0002850474481997282,-4.4661812160326084e-05,4.378609035326087e-07
-3.940748131793478e-05,2.1017323369565217e-05,-7.750137992527173e-05,-3.283956776494565e-05,-0.0003130705460258152,-0.00024038563603940216,-4.0283203124999995e-05,-3.940748131793478e-06
-1.663871433423913e-05,1.970374065896739e-05,-6.961988366168479e-05,-2.364448879076087e-05,-0.00018258799677309782,-0.00018039869225543477,-3.678031589673913e-05,-1.0508661684782609e-05
6.56791355298913e-06,1.4011548913043478e-05,-5.385689113451087e-05,-1.2260105298913043e-05,-4.728897758152174e-05,-0.00011077880859375,-2.5395932404891303e-05,-1.313582710597826e-05
2.4958071501358695e-05,4.816469938858695e-06,-3.283956776494565e-05,0.0,0.00010464875594429347,-1.970374065896739e-05,-3.065026324728261e-06,-1.1384383491847825e-05
3.984534222146739e-05,0.0,-7.005774456521739e-06,8.757218070652174e-06,0.00025571076766304346,8.275571076766304e-05,1.751443614130435e-05,-7.881496263586956e-06
5.4732612941576086e-05,-4.378609035326087e-07,2.276876698369565e-05,1.970374065896739e-05,0.00037480893342391305,0.00017383077870244563,3.327742866847826e-05,-1.313582710597826e-06
6.699271824048912e-05,-7.881496263586956e-06,5.298116932744565e-05,3.7656037703804346e-05,0.0004790198284646739,0.00025395932404891303,4.772683848505435e-05,5.254330842391304e-06
6.961988366168479e-05,-2.1893045176630434e-05,7.969068444293477e-05,5.210544752038043e-05,0.0005613376783288043,0.00032445492951766304,5.954908288043478e-05,7.443635360054348e-06
5.56083347486413e-05,-2.8898819633152172e-05,9.54536769701087e-05,5.4732612941576086e-05,0.0004917177946671196,0.0003209520422894022,6.305197010869565e-05,1.0508661684782609e-05
1.313582710597826e-05,-2.1017323369565217e-05,8.757218070652174e-05,4.247250764266304e-05,0.0001860908840013587,0.00017470650050951088,5.1229725713315214e-05,1.4887270720108696e-05
-5.166758661684782e-05,-4.378609035326087e-06,5.604619565217391e-05,1.620085343070652e-05,-0.00017908510954483696,-4.378609035326087e-05,2.2330906080163042e-05,1.0508661684782609e-05
-0.00010289731233016304,1.1384383491847825e-05,1.620085343070652e-05,-8.319357167119564e-06,-0.00037305748980978257,-0.0001970374065896739,-7.881496263586956e-06,4.378609035326087e-07
-0.00011428169582201086,1.926587975543478e-05,-2.0141601562499998e-05,-2.057946246603261e-05,-0.0004304172681725543,-0.00026928445567255433,-2.5395932404891303e-05,-2.627165421195652e-06
-0.00010202159052309782,2.057946246603261e-05,-5.429475203804348e-05,-2.714737601902174e-05,-0.0004693868885869565,-0.0003178870159646739,-3.50288722826087e-05,-3.5028872282608694e-06
-8.494501528532609e-05,2.1893045176630434e-05,-7.925282353940217e-05,-3.1088124150815216e-05,-0.0004177193019701087,-0.00031394626783288045,-3.940748131793478e-05,-6.130052649456522e-06
-5.4732612941576086e-05,2.1455184273097826e-05,-8.406929347826087e-05,-2.8898819633152172e-05,-0.00025001857591711957,-0.00022943911345108694,-3.459101137907609e-05,-7.005774456521739e-06
-1.8828018851902173e-05,1.620085343070652e-05,-7.487421450407608e-05,-2.4520210597826086e-05,-0.00015237559442934782,-0.00015062415081521738,-2.8898819633152172e-05,-7.881496263586956e-06
2.1893045176630435e-06,1.0508661684782609e-05,-6.305197010869565e-05,-2.2330906080163042e-05,-0.00013967762822690217,-0.00011253025220788043,-2.933668053668478e-05,-1.2260105298913043e-05
2.364448879076087e-05,9.195078974184782e-06,-4.4223951256793476e-05,-1.5762992527173912e-05,2.2330906080163042e-05,-8.757218070652174e-06,-2.364448879076087e-05,-1.1822244395380435e-05
5.911122197690217e-05,6.56791355298913e-06,-1.313582710597826e-05,0.0,0.0002986211362092391,0.00017120361328124998,-3.940748131793478e-06,-5.254330842391304e-06
8.625859799592391e-05,-2.1893045176630435e-06,1.970374065896739e-05,1.663871433423913e-05,0.0004181571628736413,0.00028898819633152174,1.8390157948369565e-05,0.0
9.895656419836956e-05,-1.4887270720108696e-05,4.772683848505435e-05,2.714737601902174e-05,0.0004382987644361413,0.0003380286175271739,3.721817680027174e-05,5.6921917459239125e-06
0.00011778458305027173,-2.320662788722826e-05,7.750137992527173e-05,4.1596785835597826e-05,0.0005455746858016304,0.0004194707455842391,5.4732612941576086e-05,1.4011548913043478e-05
0.00012522821841032608,-2.364448879076087e-05,0.00010552447775135868,6.04248046875e-05,0.000546012546705163,0.00045712678328804345,6.786844004755434e-05,2.1455184273097826e-05
8.669645889945652e-05,-2.0141601562499998e-05,0.00011034094769021739,6.130052649456522e-05,0.00023732060971467392,0.00031438412873641304,6.61169964334239e-05,2.670951511548913e-05
1.8390157948369565e-05,-1.4011548913043478e-05,7.531207540760869e-05,3.4153150475543474e-05,-0.00016726286514945652,6.173838739809782e-05,4.2034646739130435e-05,2.8898819633152172e-05
-3.678031589673913e-05,-3.5028872282608694e-06,1.7076575237771737e-05,0.0,-0.0004098378057065217,-0.0001462455417798913,4.378609035326087e-06,2.1893045176630434e-05
-6.261410920516304e-05,3.5028872282608694e-06,-2.8460958729619564e-05,-2.4082349694293478e-05,-0.0004952206818953804,-0.0002592136548913043,-2.627165421195652e-05,8.319357167119564e-06
-6.56791355298913e-05,4.378609035326087e-06,-5.4732612941576086e-05,-3.7656037703804346e-05,-0.0004995992909307065,-0.0002977454144021739,-4.55375339673913e-05,-1.7514436141304347e-06
-5.823550016983695e-05,7.443635360054348e-06,-7.268490998641304e-05,-4.378609035326087e-05,-0.0004334822944972826,-0.00028548530910326087,-5.911122197690217e-05,-5.254330842391304e-06
-4.115892493206522e-05,1.5762992527173912e-05,-8.231784986413044e-05,-4.115892493206522e-05,-0.0003082540760869565,-0.00023644488790760867,-5.911122197690217e-05,-7.443635360054348e-06
-1.4011548913043478e-05,1.663871433423913e-05,-7.487421450407608e-05,-3.1088124150815216e-05,-0.00016025709069293476,-0.00015719206436820652,-4.0283203124999995e-05,-9.63293987771739e-06
1.4011548913043478e-05,1.0070800781249999e-05,-5.341903023097826e-05,-1.8828018851902173e-05,-1.8390157948369565e-05,-6.348983101222826e-05,-2.1017323369565217e-05,-1.0946522588315217e-05
3.283956776494565e-05,4.378609035326087e-06,-3.021240234375e-05,-8.757218070652174e-06,0.00011734672214673912,3.3715289572010865e-05,-1.1384383491847825e-05,-1.0070800781249999e-05
4.378609035326087e-05,0.0,-1.0946522588315217e-05,3.065026324728261e-06,0.00025483504585597827,0.0001366126019021739,1.313582710597826e-06,-5.254330842391304e-06
5.648405655570652e-05,-8.319357167119564e-06,1.313582710597826e-05,2.2330906080163042e-05,0.00038050112516983695,0.00023425558338994564,2.276876698369565e-05,1.313582710597826e-06
7.618779721467391e-05,-1.7076575237771737e-05,5.035400390625e-05,4.247250764266304e-05,0.0004886527683423912,0.0003161355723505435,4.378609035326087e-05,8.757218070652174e-06
9.58915378736413e-05,-1.751443614130435e-05,8.888576341711956e-05,5.7797639266304343e-05,0.0005600240956182065,0.0003822525687839674,6.130052649456522e-05,1.8828018851902173e-05
9.151292883831521e-05,-1.4011548913043478e-05,0.00010683806046195652,6.086266559103261e-05,0.0004807712720788043,0.0003787496815557065,7.049560546875e-05,2.627165421195652e-05
3.896962041440217e-05,-1.2260105298913043e-05,9.282651154891303e-05,4.4661812160326084e-05,0.00017602008322010869,0.00023513130519701086,5.823550016983695e-05,2.320662788722826e-05
-5.0791864809782605e-05,-8.319357167119564e-06,5.648405655570652e-05,1.7076575237771737e-05,-0.00017864724864130434,1.0508661684782609e-05,2.4958071501358695e-05,1.1822244395380435e-05
-0.00012873110563858695,-1.7514436141304347e-06,1.4887270720108696e-05,-7.881496263586956e-06,-0.0003669274371603261,-0.00015412703804347825,-9.63293987771739e-06,-2.627165421195652e-06
-0.00016332211701766304,-8.757218070652174e-07,-2.583379330842391e-05,-3.1088124150815216e-05,-0.0004400502080502717,-0.00024126135784646738,-3.021240234375e-05,-1.5325131623641304e-05
-0.00016332211701766304,-2.627165421195652e-06,-6.480341372282608e-05,-4.685111667798913e-05,-0.0004995992909307065,-0.0003034376061480978,-3.7656037703804346e-05,-2.1455184273097826e-05
-0.0001409912109375,3.065026324728261e-06,-9.019934612771738e-05,-4.728897758152174e-05,-0.0004501210088315217,-0.00030650263247282607,-4.291036854619565e-05,-2.364448879076087e-05
-0.00010027014690896739,9.195078974184782e-06,-9.151292883831521e-05,-4.2034646739130435e-05,-0.0002666572902513587,-0.00022111975628396737,-4.772683848505435e-05,-2.4958071501358695e-05
-5.911122197690217e-05,3.5028872282608694e-06,-8.144212805706522e-05,-3.590459408967391e-05,-0.00014449409816576087,-0.00013442329738451087,-4.509967306385869e-05,-2.320662788722826e-05
-2.7585236922554347e-05,-7.881496263586956e-06,-7.487421450407608e-05,-2.4520210597826086e-05,-0.00011077880859375,-9.238865064538043e-05,-3.283956776494565e-05,-1.8390157948369565e-05
1.663871433423913e-05,-8.319357167119564e-06,-5.823550016983695e-05,-8.319357167119564e-06,5.298116932744565e-05,0.0,-1.1822244395380435e-05,-7.005774456521739e-06
8.187998896059783e-05,1.7514436141304347e-06,-1.8390157948369565e-05,8.757218070652174e-06,0.0003108812415081522,0.0001655114215353261,1.2260105298913043e-05,1.4449409816576086e-05
0.00012697966202445651,6.130052649456522e-06,2.714737601902174e-05,2.670951511548913e-05,0.00041071352751358695,0.0002780416737432065,3.240170686141304e-05,3.021240234375e-05
0.00013880190641983695,4.378609035326087e-07,6.217624830163043e-05,3.984534222146739e-05,0.0004238493546195652,0.00031657343325407607,4.685111667798913e-05,2.714737601902174e-05
0.00014931056810461955,-6.130052649456522e-06,9.414009425951087e-05,4.772683848505435e-05,0.0005298116932744565,0.0003774360988451087,5.998694378396739e-05,2.1017323369565217e-05
0.00014536981997282609,-1.1822244395380435e-05,0.00011734672214673912,5.1229725713315214e-05,0.0005276223887567934,0.0004076485011888587,6.480341372282608e-05,2.4082349694293478e-05
8.494501528532609e-05,-1.663871433423913e-05,0.0001059623386548913,4.4223951256793476e-05,0.0002224333389945652,0.0002745387865149456,5.210544752038043e-05,2.276876698369565e-05
-8.319357167119564e-06,-1.313582710597826e-05,6.392769191576087e-05,2.2330906080163042e-05,-0.0001716414741847826,3.021240234375e-05,2.8460958729619564e-05,1.0946522588315217e-05
-6.830630095108695e-05,-1.7514436141304347e-06,1.970374065896739e-05,-5.6921917459239125e-06,-0.0004023941703464674,-0.00016594928243885868,-4.378609035326087e-07,0.0
-8.231784986413044e-05,6.56791355298913e-06,-1.8390157948369565e-05,-3.021240234375e-05,-0.00047683052394701086,-0.0002670951511548913,-3.1525985054347824e-05,-8.319357167119564e-06
-7.925282353940217e-05,1.0946522588315217e-05,-5.1229725713315214e-05,-4.641325577445652e-05,-0.0004711383322010869,-0.00030606477156929347,-5.0791864809782605e-05,-1.7952297044836957e-05
-7.312277088994565e-05,1.4449409816576086e-05,-6.918202275815218e-05,-5.298116932744565e-05,-0.00039670197860054344,-0.00029686969259510866,-5.254330842391304e-05,-2.1893045176630434e-05
-6.480341372282608e-05,1.2697966202445651e-05,-7.268490998641304e-05,-4.772683848505435e-05,-0.00027191162109375,-0.0002421370796535326,-4.8164699388586956e-05,-2.057946246603261e-05
-5.692191745923913e-05,7.881496263586956e-06,-6.961988366168479e-05,-3.327742866847826e-05,-0.0001401154891304348,-0.00016507356063179347,-4.0283203124999995e-05,-2.057946246603261e-05
-4.247250764266304e-05,7.443635360054348e-06,-5.692191745923913e-05,-1.926587975543478e-05,-1.4011548913043478e-05,-8.275571076766304e-05,-2.5395932404891303e-05,-1.5325131623641304e-05
-9.63293987771739e-06,5.254330842391304e-06,-3.459101137907609e-05,-5.6921917459239125e-06,0.0001221631920855978,6.56791355298913e-06,-5.6921917459239125e-06,-1.313582710597826e-06
3.1525985054347824e-05,-3.940748131793478e-06,-8.319357167119564e-06,1.4011548913043478e-05,0.00026008937669836957,9.632939877717391e-05,1.4011548913043478e-05,9.63293987771739e-06
6.56791355298913e-05,-1.2697966202445651e-05,1.751443614130435e-05,3.240170686141304e-05,0.0003721817680027174,0.00017602008322010869,3.327742866847826e-05,1.0508661684782609e-05
9.370223335597826e-05,-1.357368800951087e-05,5.035400390625e-05,4.072106402853261e-05,0.0004693868885869565,0.0002596515157948369,4.685111667798913e-05,9.195078974184782e-06
0.00011253025220788043,-1.2260105298913043e-05,8.801004161005434e-05,4.597539487092391e-05,0.0005455746858016304,0.0003389043393342391,5.4732612941576086e-05,1.0508661684782609e-05
9.851870329483695e-05,-1.5762992527173912e-05,0.00010815164317255435,4.947828209918478e-05,0.0004790198284646739,0.0003380286175271739,5.998694378396739e-05,1.0946522588315217e-05
4.2034646739130435e-05,-2.057946246603261e-05,9.063720703124999e-05,4.0283203124999995e-05,0.00019003163213315218,0.00019835098930027172,4.904042119565217e-05,7.005774456521739e-06
-2.8460958729619564e-05,-2.0141601562499998e-05,4.509967306385869e-05,1.8390157948369565e-05,-0.00015500275985054347,-1.0946522588315217e-05,1.8390157948369565e-05,4.378609035326087e-06
-8.187998896059783e-05,-1.2260105298913043e-05,3.5028872282608694e-06,-1.313582710597826e-06,-0.0003428450874660326,-0.00016945216966711955,-8.757218070652174e-06,3.5028872282608694e-06
-0.0001112166694972826,3.065026324728261e-06,-2.670951511548913e-05,-1.620085343070652e-05,-0.0004093999448029891,-0.00025483504585597827,-2.4520210597826086e-05,-8.757218070652174e-07
-0.00012391463569972824,2.276876698369565e-05,-5.954908288043478e-05,-3.1525985054347824e-05,-0.00045668892238451085,-0.00030650263247282607,-4.0283203124999995e-05,-6.130052649456522e-06
-0.00011471955672554347,3.327742866847826e-05,-8.363143257472826e-05,-4.334822944972826e-05,-0.0004124649711277174,-0.0003078162151834239,-4.947828209918478e-05,-1.0946522588315217e-05
-8.144212805706522e-05,2.670951511548913e-05,-7.837710173233695e-05,-4.1596785835597826e-05,-0.00024958071501358697,-0.0002377584706182065,-4.115892493206522e-05,-1.970374065896739e-05
-4.378609035326087e-05,1.4449409816576086e-05,-6.217624830163043e-05,-2.8460958729619564e-05,-0.00013748832370923914,-0.0001655114215353261,-3.065026324728261e-05,-2.1455184273097826e-05
-1.2260105298913043e-05,1.1822244395380435e-05,-5.911122197690217e-05,-1.4449409816576086e-05,-0.00010508661684782608,-0.00012785538383152173,-2.320662788722826e-05,-1.0946522588315217e-05
3.327742866847826e-05,1.0508661684782609e-05,-5.1229725713315214e-05,0.0,5.035400390625e-05,-4.247250764266304e-05,-3.940748131793478e-06,-2.1893045176630435e-06
9.151292883831521e-05,-1.7514436141304347e-06,-1.7952297044836957e-05,1.8828018851902173e-05,0.0003086919369904891,0.0001112166694972826,2.1017323369565217e-05,8.757218070652174e-07
0.00012916896654211957,-1.7952297044836957e-05,1.8828018851902173e-05,3.5466733186141305e-05,0.0004286658245584239,0.0002219954780910326,3.678031589673913e-05,5.6921917459239125e-06
0.00014361837635869565,-2.583379330842391e-05,4.641325577445652e-05,4.685111667798913e-05,0.0004584403659986413,0.00027366306470788044,4.8164699388586956e-05,1.0508661684782609e-05
0.00016113281249999998,-3.021240234375e-05,7.706351902173912e-05,5.7797639266304343e-05,0.0005521425993546196,0.0003467858355978261,6.392769191576087e-05,1.8390157948369565e-05
0.00016419783882472825,-3.240170686141304e-05,0.00010421089504076086,6.392769191576087e-05,0.0005232437797214674,0.00037568465523097824,7.443635360054348e-05,2.8898819633152172e-05
0.00011165453040081521,-2.583379330842391e-05,9.895656419836956e-05,5.166758661684782e-05,0.00020316745923913042,0.00023513130519701086,6.086266559103261e-05,2.8898819633152172e-05
2.0141601562499998e-05,-1.357368800951087e-05,5.911122197690217e-05,2.320662788722826e-05,-0.00019134521484375,-5.254330842391304e-06,2.583379330842391e-05,1.8390157948369565e-05
-5.5170473845108694e-05,-4.378609035326087e-07,1.2697966202445651e-05,-4.378609035326087e-06,-0.00042691438094429344,-0.0001917830757472826,-7.881496263586956e-06,1.357368800951087e-05
-9.326437245244564e-05,1.7952297044836957e-05,-2.057946246603261e-05,-2.1017323369565217e-05,-0.0005070429262907609,-0.00028548530910326087,-3.1525985054347824e-05,1.620085343070652e-05
-0.00010727592136548913,3.896962041440217e-05,-4.4223951256793476e-05,-3.283956776494565e-05,-0.000501350734544837,-0.0003231413468070652,-4.728897758152174e-05,1.1822244395380435e-05
-0.00010202159052309782,4.4661812160326084e-05,-6.173838739809782e-05,-4.4661812160326084e-05,-0.0004343580163043478,-0.0003178870159646739,-5.1229725713315214e-05,-8.757218070652174e-07
-7.750137992527173e-05,3.50288722826087e-05,-7.137132727581522e-05,-4.772683848505435e-05,-0.00032051418138586953,-0.00026884659476902173,-4.509967306385869e-05,-1.0070800781249999e-05
-4.4661812160326084e-05,2.4958071501358695e-05,-7.268490998641304e-05,-3.634245499320652e-05,-0.00017908510954483696,-0.0001970374065896739,-3.984534222146739e-05,-1.0946522588315217e-05
-1.1384383491847825e-05,1.357368800951087e-05,-6.086266559103261e-05,-2.1455184273097826e-05,-3.196384595788043e-05,-0.00011559527853260869,-3.065026324728261e-05,-1.4449409816576086e-05
2.364448879076087e-05,8.757218070652174e-07,-3.634245499320652e-05,-1.0508661684782609e-05,0.0001160331394361413,-1.663871433423913e-05,-8.319357167119564e-06,-2.0141601562499998e-05
5.5170473845108694e-05,-2.1893045176630435e-06,-7.005774456521739e-06,3.065026324728261e-06,0.0002579000721807065,8.888576341711956e-05,1.663871433423913e-05,-1.5762992527173912e-05
7.618779721467391e-05,-2.627165421195652e-06,1.8390157948369565e-05,2.1893045176630434e-05,0.0003612352454144022,0.00017251719599184782,3.196384595788043e-05,-2.1893045176630435e-06
9.282651154891303e-05,-1.4887270720108696e-05,4.509967306385869e-05,3.8093898607336954e-05,0.0004387366253396739,0.00023994777513586957,4.115892493206522e-05,5.6921917459239125e-06
0.00010640019955842391,-2.977454144021739e-05,7.399849269701087e-05,4.772683848505435e-05,0.0005118593962296196,0.0003073783542798913,5.56083347486413e-05,8.319357167119564e-06
9.54536769701087e-05,-3.721817680027174e-05,9.019934612771738e-05,4.685111667798913e-05,0.0004632568359375,0.00031131910241168477,6.524127462635869e-05,1.1384383491847825e-05
3.721817680027174e-05,-3.8093898607336954e-05,7.531207540760869e-05,3.240170686141304e-05,0.0001821501358695652,0.0001768958050271739,4.685111667798913e-05,9.63293987771739e-06
-4.509967306385869e-05,-2.8023097826086955e-05,3.721817680027174e-05,1.0508661684782609e-05,-0.00016419783882472825,-3.327742866847826e-05,1.1384383491847825e-05,2.1893045176630435e-06
-0.0001059623386548913,-1.0070800781249999e-05,-1.7514436141304347e-06,-8.319357167119564e-06,-0.0003437208092730978,-0.0001860908840013587,-7.881496263586956e-06,-1.7514436141304347e-06
-0.00013529901919157608,4.378609035326087e-07,-3.50288722826087e-05,-2.1893045176630434e-05,-0.0004037077530570652,-0.00026534370754076087,-1.620085343070652e-05,-3.940748131793478e-06
-0.00014799698539402173,6.56791355298913e-06,-6.261410920516304e-05,-3.327742866847826e-05,-0.00045668892238451085,-0.00031701129415760866,-3.1525985054347824e-05,-6.56791355298913e-06
-0.00013354757557744565,2.0141601562499998e-05,-7.487421450407608e-05,-4.072106402853261e-05,-0.0004137785538383152,-0.00031175696331521736,-4.1596785835597826e-05,-4.378609035326087e-06
-8.801004161005434e-05,3.459101137907609e-05,-6.961988366168479e-05,-3.853175951086956e-05,-0.00025001857591711957,-0.00023119055706521737,-3.4153150475543474e-05,-4.378609035326087e-07
-4.597539487092391e-05,3.5466733186141305e-05,-6.130052649456522e-05,-3.021240234375e-05,-0.0001475591244904891,-0.00015806778617527174,-2.4082349694293478e-05,-4.378609035326087e-07
-2.1017323369565217e-05,2.583379330842391e-05,-5.035400390625e-05,-2.320662788722826e-05,-0.00011384383491847825,-0.000120849609375,-1.8390157948369565e-05,-8.757218070652174e-07
2.0141601562499998e-05,1.926587975543478e-05,-2.5395932404891303e-05,-1.1822244395380435e-05,6.217624830163043e-05,-2.1017323369565217e-05,-7.005774456521739e-06,3.5028872282608694e-06
8.53828761888587e-05,1.4449409816576086e-05,8.757218070652174e-06,8.757218070652174e-06,0.00031963845957880434,0.00014799698539402173,1.2260105298913043e-05,1.1384383491847825e-05
0.0001313582710597826,6.130052649456522e-06,3.896962041440217e-05,2.670951511548913e-05,0.00041158924932065214,0.00025877579398777173,3.240170686141304e-05,1.7076575237771737e-05
0.00014974842900815217,-4.378609035326087e-07,6.392769191576087e-05,3.896962041440217e-05,0.0004291036854619565,0.00030431332795516304,5.298116932744565e-05,2.0141601562499998e-05
0.00016857644786005433,-7.443635360054348e-06,9.238865064538043e-05,5.604619565217391e-05,0.0005407582158627717,0.0003743710725203804,7.093346637228261e-05,2.2330906080163042e-05
0.00017251719599184782,-2.1893045176630434e-05,0.00011165453040081521,6.743057914402173e-05,0.0005263088060461957,0.00039626411769701084,7.00577445652174e-05,2.5395932404891303e-05
0.00011866030485733696,-3.065026324728261e-05,0.00010202159052309782,5.692191745923913e-05,0.00020316745923913042,0.0002469535495923913,4.685111667798913e-05,2.320662788722826e-05
2.276876698369565e-05,-2.4958071501358695e-05,6.261410920516304e-05,3.021240234375e-05,-0.00018740446671195653,4.378609035326087e-07,2.057946246603261e-05,1.357368800951087e-05
-5.5170473845108694e-05,-1.5762992527173912e-05,1.0508661684782609e-05,4.378609035326087e-06,-0.0004019563094429348,-0.0001909073539402174,-4.378609035326087e-06,0.0
-9.58915378736413e-05,-7.881496263586956e-06,-3.634245499320652e-05,-1.357368800951087e-05,-0.0004759548021399456,-0.0002929289444633152,-3.196384595788043e-05,-1.1822244395380435e-05
-0.00011077880859375,-4.378609035326087e-07,-6.918202275815218e-05,-2.320662788722826e-05,-0.000485587742017663,-0.0003327742866847826,-4.947828209918478e-05,-1.5325131623641304e-05
-0.00010333517323369564,4.378609035326087e-07,-8.757218070652174e-05,-3.065026324728261e-05,-0.00042603865913722825,-0.00031525985054347823,-5.210544752038043e-05,-1.0946522588315217e-05
-7.925282353940217e-05,2.1893045176630435e-06,-9.501581606657609e-05,-3.984534222146739e-05,-0.0003073783542798913,-0.00025001857591711957,-5.1229725713315214e-05,-9.63293987771739e-06
-4.904042119565217e-05,8.757218070652174e-06,-8.888576341711956e-05,-4.334822944972826e-05,-0.0001655114215353261,-0.00016244639521059782,-4.8602560292119564e-05,-1.4887270720108696e-05
-9.63293987771739e-06,7.881496263586956e-06,-6.918202275815218e-05,-3.196384595788043e-05,-1.751443614130435e-05,-6.699271824048912e-05,-3.50288722826087e-05,-1.663871433423913e-05
3.50288722826087e-05,-1.313582710597826e-06,-4.378609035326087e-05,-1.1822244395380435e-05,0.00013267185377038043,3.065026324728261e-05,-1.2697966202445651e-05,-7.881496263586956e-06
7.00577445652174e-05,-7.881496263586956e-06,-1.5325131623641304e-05,9.195078974184782e-06,0.0002767280910326087,0.0001322339928668478,1.0070800781249999e-05,2.1893045176630435e-06
9.370223335597826e-05,-5.6921917459239125e-06,1.8828018851902173e-05,2.4958071501358695e-05,0.0003971398395040761,0.0002329420006793478,2.933668053668478e-05,8.319357167119564e-06
0.0001164710003396739,0.0,5.823550016983695e-05,3.283956776494565e-05,0.000495658542798913,0.00032664423403532607,4.641325577445652e-05,1.620085343070652e-05
0.00013092041015625,1.313582710597826e-06,9.501581606657609e-05,4.509967306385869e-05,0.0005591483738111413,0.0003980155613111413,6.524127462635869e-05,2.4082349694293478e-05
0.0001112166694972826,-5.254330842391304e-06,0.0001164710003396739,5.998694378396739e-05,0.00048296057659646735,0.0003896962041440217,7.312277088994565e-05,2.2330906080163042e-05
4.55375339673913e-05,-1.1384383491847825e-05,0.00010508661684782608,5.298116932744565e-05,0.0001970374065896739,0.00024476424507472827,5.4732612941576086e-05,1.1384383491847825e-05
-3.940748131793478e-05,-1.0508661684782609e-05,6.217624830163043e-05,2.2330906080163042e-05,-0.0001414290718410326,2.627165421195652e-05,2.627165421195652e-05,2.627165421195652e-06
-0.00010289731233016304,-3.5028872282608694e-06,1.4887270720108696e-05,-2.1893045176630435e-06,-0.0003314607039741848,-0.00013880190641983695,5.6921917459239125e-06,2.1893045176630435e-06
-0.00013442329738451087,9.63293987771739e-06,-2.057946246603261e-05,-1.4011548913043478e-05,-0.0004102756666100543,-0.00022900125254755435,-1.313582710597826e-05,3.5028872282608694e-06
-0.00014449409816576087,2.1455184273097826e-05,-5.341903023097826e-05,-2.364448879076087e-05,-0.00047332763671875,-0.00028855033542798914,-3.4153150475543474e-05,8.757218070652174e-07
-0.00013310971467391303,1.926587975543478e-05,-7.793924082880434e-05,-3.1525985054347824e-05,-0.0004426773734714674,-0.00029599397078804347,-4.4223951256793476e-05,-5.254330842391304e-06
-9.983228600543478e-05,9.63293987771739e-06,-8.056640624999999e-05,-3.3715289572010865e-05,-0.00029205322265625,-0.00023119055706521737,-4.1596785835597826e-05,-1.7076575237771737e-05
-6.524127462635869e-05,5.6921917459239125e-06,-7.312277088994565e-05,-3.196384595788043e-05,-0.0001817122749660326,-0.00016069495159646739,-3.459101137907609e-05,-2.670951511548913e-05
-3.4153150475543474e-05,8.319357167119564e-06,-6.699271824048912e-05,-2.1455184273097826e-05,-0.00012260105298913043,-0.0001112166694972826,-2.670951511548913e-05,-1.8390157948369565e-05
1.8390157948369565e-05,9.63293987771739e-06,-4.291036854619565e-05,0.0,7.137132727581522e-05,0.0,-1.0070800781249999e-05,-1.7514436141304347e-06
8.801004161005434e-05,5.254330842391304e-06,1.313582710597826e-06,1.8390157948369565e-05,0.00033540145210597823,0.00016770072605298912,1.4011548913043478e-05,0.0
0.00012741752292798914,-1.313582710597826e-06,3.678031589673913e-05,2.4082349694293478e-05,0.00042691438094429344,0.00026928445567255433,3.1525985054347824e-05,-4.816469938858695e-06
0.00013836404551630435,-9.63293987771739e-06,5.911122197690217e-05,3.3715289572010865e-05,0.0004378609035326087,0.0003082540760869565,4.2034646739130435e-05,-8.757218070652174e-07
0.00015806778617527174,-2.320662788722826e-05,8.757218070652174e-05,5.166758661684782e-05,0.0005464504076086956,0.0003826904296875,5.911122197690217e-05,1.0070800781249999e-05
0.00016726286514945652,-3.984534222146739e-05,0.00010902736497961956,5.954908288043478e-05,0.0005455746858016304,0.0004146542756453804,7.224704908288043e-05,1.926587975543478e-05
0.00011296811311141304,-4.55375339673913e-05,9.632939877717391e-05,4.4661812160326084e-05,0.00023556916610054346,0.00027016017747961957,5.7359778362771735e-05,1.7952297044836957e-05
1.0508661684782609e-05,-3.634245499320652e-05,5.4732612941576086e-05,1.970374065896739e-05,-0.0001720793350883152,2.1017323369565217e-05,2.0141601562499998e-05,8.319357167119564e-06
-7.487421450407608e-05,-2.0141601562499998e-05,7.443635360054348e-06,-2.627165421195652e-06,-0.0004177193019701087,-0.00017426863960597825,-1.1822244395380435e-05,4.378609035326087e-06
-0.0001164710003396739,-3.065026324728261e-06,-3.1088124150815216e-05,-2.057946246603261e-05,-0.0004904042119565217,-0.00027410092561141303,-2.8460958729619564e-05,7.443635360054348e-06
-0.0001256660793138587,1.313582710597826e-05,-5.692191745923913e-05,-3.1525985054347824e-05,-0.0004693868885869565,-0.0003056269106657609,-3.7656037703804346e-05,2.1893045176630435e-06
-0.00011471955672554347,2.627165421195652e-05,-6.874416185461957e-05,-3.459101137907609e-05,-0.00039144764775815214,-0.00028460958729619563,-4.247250764266304e-05,-7.881496263586956e-06
-8.757218070652174e-05,3.4153150475543474e-05,-6.918202275815218e-05,-3.240170686141304e-05,-0.00027629023012907606,-0.0002276876698369565,-3.896962041440217e-05,-3.940748131793478e-06
-4.904042119565217e-05,3.327742866847826e-05,-6.130052649456522e-05,-2.5395932404891303e-05,-0.00014580768087635868,-0.00015500275985054347,-2.714737601902174e-05,1.0946522588315217e-05
-4.378609035326087e-06,2.320662788722826e-05,-4.728897758152174e-05,-1.4011548913043478e-05,-1.4449409816576086e-05,-7.00577445652174e-05,-1.4887270720108696e-05,1.7076575237771737e-05
4.0283203124999995e-05,1.1384383491847825e-05,-3.1088124150815216e-05,-2.1893045176630435e-06,0.00011866030485733696,2.5395932404891303e-05,-5.6921917459239125e-06,1.4449409816576086e-05
8.056640624999999e-05,3.940748131793478e-06,-9.63293987771739e-06,1.0508661684782609e-05,0.0002469535495923913,0.00011822244395380434,7.881496263586956e-06,1.1384383491847825e-05
0.00010552447775135868,-3.065026324728261e-06,2.0141601562499998e-05,2.4520210597826086e-05,0.0003542294709578804,0.00020010243291440218,2.7585236922554347e-05,7.005774456521739e-06
0.0001160331394361413,-1.313582710597826e-05,5.341903023097826e-05,3.1088124150815216e-05,0.0004527481742527174,0.00027410092561141303,4.291036854619565e-05,2.627165421195652e-06
0.00011997388756793478,-2.1017323369565217e-05,8.275571076766304e-05,3.240170686141304e-05,0.0005254330842391304,0.0003332121475883152,4.947828209918478e-05,0.0
0.0001007080078125,-2.364448879076087e-05,9.764298148777174e-05,3.283956776494565e-05,0.0004426773734714674,0.0003227034859035326,4.772683848505435e-05,-3.940748131793478e-06
3.283956776494565e-05,-2.057946246603261e-05,8.363143257472826e-05,2.320662788722826e-05,0.00014055335003396738,0.00019003163213315218,3.459101137907609e-05,-1.0946522588315217e-05
-5.998694378396739e-05,-1.0508661684782609e-05,4.247250764266304e-05,2.1893045176630435e-06,-0.00018915591032608696,-8.757218070652174e-06,1.0508661684782609e-05,-1.313582710597826e-05
-0.00012303891389266303,3.065026324728261e-06,2.1893045176630435e-06,-1.357368800951087e-05,-0.0003537916100543478,-0.00016025709069293476,-1.2697966202445651e-05,-1.313582710597826e-05
-0.0001462455417798913,1.2260105298913043e-05,-2.670951511548913e-05,-2.1017323369565217e-05,-0.0004225357719089674,-0.00024520210597826086,-2.933668053668478e-05,-1.4887270720108696e-05
-0.00015368917713994565,1.5762992527173912e-05,-5.692191745923913e-05,-2.977454144021739e-05,-0.0004794576893682065,-0.00030431332795516304,-4.1596785835597826e-05,-1.357368800951087e-05
-0.00013354757557744565,1.751443614130435e-05,-8.406929347826087e-05,-3.3715289572010865e-05,-0.0004199086064877717,-0.0003073783542798913,-4.4661812160326084e-05,-4.816469938858695e-06
-7.925282353940217e-05,1.663871433423913e-05,-8.713431980298913e-05,-2.4082349694293478e-05,-0.00024126135784646738,-0.00023031483525815216,-3.459101137907609e-05,5.254330842391304e-06
-3.590459408967391e-05,1.0946522588315217e-05,-7.268490998641304e-05,-1.4449409816576086e-05,-0.00013792618461277173,-0.00015368917713994565,-2.320662788722826e-05,7.881496263586956e-06
-1.926587975543478e-05,7.005774456521739e-06,-6.086266559103261e-05,-1.313582710597826e-05,-0.00010727592136548913,-0.0001160331394361413,-1.8828018851902173e-05,3.5028872282608694e-06
1.970374065896739e-05,8.319357167119564e-06,-4.115892493206522e-05,-4.378609035326087e-06,6.524127462635869e-05,-2.8898819633152172e-05,-7.005774456521739e-06,-8.757218070652174e-07
8.58207370923913e-05,5.6921917459239125e-06,-8.757218070652174e-07,1.663871433423913e-05,0.0003231413468070652,0.00012391463569972824,1.7076575237771737e-05,-2.1893045176630435e-06
0.00012873110563858695,-5.6921917459239125e-06,3.853175951086956e-05,3.3715289572010865e-05,0.0004286658245584239,0.00023075269616168478,3.678031589673913e-05,2.1893045176630435e-06
0.0001501862899116848,-2.2330906080163042e-05,6.436555281929347e-05,4.4223951256793476e-05,0.00046106753141983696,0.0002824202827785326,4.597539487092391e-05,9.195078974184782e-06
0.0001768958050271739,-3.459101137907609e-05,9.151292883831521e-05,5.4732612941576086e-05,0.00056396484375,0.0003533537491508152,5.954908288043478e-05,1.1822244395380435e-05
0.00016945216966711955,-3.5466733186141305e-05,0.00011253025220788043,5.5170473845108694e-05,0.0005249952233355978,0.00037305748980978257,6.786844004755434e-05,1.0070800781249999e-05
9.414009425951087e-05,-2.7585236922554347e-05,9.808084239130435e-05,3.853175951086956e-05,0.0001917830757472826,0.00022900125254755435,4.904042119565217e-05,7.881496263586956e-06
-6.56791355298913e-06,-2.1017323369565217e-05,5.4732612941576086e-05,1.5325131623641304e-05,-0.0001970374065896739,-5.254330842391304e-06,1.4011548913043478e-05,6.56791355298913e-06
-8.494501528532609e-05,-1.5762992527173912e-05,1.0070800781249999e-05,-7.005774456521739e-06,-0.000415092136548913,-0.00018784232761548912,-1.4449409816576086e-05,3.5028872282608694e-06
-0.0001322339928668478,-3.940748131793478e-06,-2.977454144021739e-05,-2.7585236922554347e-05,-0.0004899663510529891,-0.00028417172639266303,-3.3715289572010865e-05,-6.130052649456522e-06
-0.00014974842900815217,1.1822244395380435e-05,-6.348983101222826e-05,-3.984534222146739e-05,-0.0004921556555706521,-0.0003235792077105978,-4.4223951256793476e-05,-1.7952297044836957e-05
-0.00013792618461277173,1.926587975543478e-05,-8.100426715353261e-05,-4.2034646739130435e-05,-0.00042691438094429344,-0.0003126326851222826,-4.334822944972826e-05,-1.8828018851902173e-05
-0.00010421089504076086,1.7076575237771737e-05,-8.363143257472826e-05,-3.634245499320652e-05,-0.0003025618843410326,-0.00025571076766304346,-3.590459408967391e-05,-1.0070800781249999e-05
-5.911122197690217e-05,1.357368800951087e-05,-8.056640624999999e-05,-2.5395932404891303e-05,-0.0001554406207540761,-0.00017339291779891304,-2.7585236922554347e-05,-4.816469938858695e-06
-1.2697966202445651e-05,1.0508661684782609e-05,-6.743057914402173e-05,-1.1822244395380435e-05,-1.1822244395380435e-05,-7.881496263586956e-05,-1.7076575237771737e-05,-3.940748131793478e-06
2.7585236922554347e-05,7.005774456521739e-06,-3.721817680027174e-05,1.313582710597826e-06,0.00013310971467391303,2.1017323369565217e-05,-1.7514436141304347e-06,1.313582710597826e-06
6.261410920516304e-05,6.56791355298913e-06,1.7514436141304347e-06,1.2260105298913043e-05,0.0002749766474184783,0.00011866030485733696,1.4887270720108696e-05,1.4011548913043478e-05
9.58915378736413e-05,6.56791355298913e-06,3.590459408967391e-05,2.4082349694293478e-05,0.00038619331691576084,0.00020973537279211956,3.196384595788043e-05,2.364448879076087e-05
0.00013267185377038043,2.1893045176630435e-06,6.392769191576087e-05,4.247250764266304e-05,0.0004812091329823369,0.0002973075534986413,4.904042119565217e-05,2.1017323369565217e-05
0.00016726286514945652,-2.1893045176630435e-06,9.501581606657609e-05,6.217624830163043e-05,0.0005587105129076087,0.0003691167416779891,6.173838739809782e-05,2.0141601562499998e-05
0.00016507356063179347,-3.940748131793478e-06,0.0001164710003396739,6.699271824048912e-05,0.00048646346382472827,0.0003664895762567935,6.786844004755434e-05,3.196384595788043e-05
9.939442510190217e-05,-5.254330842391304e-06,0.00010421089504076086,5.210544752038043e-05,0.00018127441406249998,0.00022900125254755435,5.911122197690217e-05,3.7656037703804346e-05
2.627165421195652e-06,-5.254330842391304e-06,6.261410920516304e-05,2.583379330842391e-05,-0.00017295505689538042,1.1384383491847825e-05,3.021240234375e-05,2.364448879076087e-05
-7.268490998641304e-05,-1.7514436141304347e-06,1.4887270720108696e-05,0.0,-0.00035773235818614127,-0.00015500275985054347,-8.757218070652174e-07,9.195078974184782e-06
-0.00011953602666440217,8.757218070652174e-07,-2.670951511548913e-05,-1.926587975543478e-05,-0.00041684358016304344,-0.0002368827488111413,-1.8828018851902173e-05,4.378609035326087e-07
-0.00015368917713994565,-8.757218070652174e-07,-6.130052649456522e-05,-3.240170686141304e-05,-0.00045143459154211956,-0.0002872367527173913,-3.678031589673913e-05,-1.357368800951087e-05
-0.00015938136888586955,-5.6921917459239125e-06,-8.275571076766304e-05,-4.0283203124999995e-05,-0.0003918855086616848,-0.00029424252717391304,-5.341903023097826e-05,-2.8898819633152172e-05
-0.00012041174847146739,-8.757218070652174e-06,-8.932362432065217e-05,-4.1596785835597826e-05,-0.00023469344429347824,-0.00022943911345108694,-4.772683848505435e-05,-3.4153150475543474e-05
-7.093346637228261e-05,-7.005774456521739e-06,-8.669645889945652e-05,-3.896962041440217e-05,-0.00014931056810461955,-0.00016375997792119566,-3.4153150475543474e-05,-2.8023097826086955e-05
-3.678031589673913e-05,8.757218070652174e-07,-7.487421450407608e-05,-3.459101137907609e-05,-0.00012172533118206522,-0.00012873110563858695,-3.065026324728261e-05,-1.7952297044836957e-05
1.357368800951087e-05,8.319357167119564e-06,-4.728897758152174e-05,-2.057946246603261e-05,5.56083347486413e-05,-3.7656037703804346e-05,-1.8390157948369565e-05,-1.0070800781249999e-05
8.932362432065217e-05,5.254330842391304e-06,-7.005774456521739e-06,6.56791355298913e-06,0.00030912979789402174,0.00011384383491847825,1.0070800781249999e-05,-3.940748131793478e-06
0.00013398543648097824,-2.627165421195652e-06,2.8460958729619564e-05,2.977454144021739e-05,0.00039845342221467387,0.00021367612092391305,3.1525985054347824e-05,0.0
0.00013923976732336957,-6.56791355298913e-06,5.5170473845108694e-05,3.7656037703804346e-05,0.0004203464673913043,0.00025833793308423914,4.072106402853261e-05,4.378609035326087e-07
0.00014974842900815217,-1.0508661684782609e-05,8.275571076766304e-05,4.2034646739130435e-05,0.0005280602496603261,0.00032138990319293477,5.254330842391304e-05,3.940748131793478e-06
0.00015062415081521738,-1.4449409816576086e-05,0.0001059623386548913,5.035400390625e-05,0.0005017885954483695,0.0003380286175271739,5.954908288043478e-05,1.4887270720108696e-05
9.063720703124999e-05,-1.2697966202445651e-05,0.00010245945142663043,4.55375339673913e-05,0.00017908510954483696,0.00021148681640625,4.4223951256793476e-05,2.057946246603261e-05
-1.1384383491847825e-05,-8.319357167119564e-06,6.61169964334239e-05,1.970374065896739e-05,-0.00019922671110733693,4.378609035326087e-07,1.4449409816576086e-05,1.2260105298913043e-05
-9.851870329483695e-05,-6.130052649456522e-06,1.7952297044836957e-05,-7.443635360054348e-06,-0.0004032698921535326,-0.00017426863960597825,-1.2260105298913043e-05,-3.5028872282608694e-06
-0.0001462455417798913,4.378609035326087e-07,-2.627165421195652e-05,-2.364448879076087e-05,-0.00046763544497282605,-0.00027410092561141303,-3.065026324728261e-05,-1.926587975543478e-05
-0.00016025709069293476,1.0508661684782609e-05,-6.305197010869565e-05,-3.4153150475543474e-05,-0.0004685111667798913,-0.00031131910241168477,-4.4223951256793476e-05,-2.5395932404891303e-05
-0.00014580768087635868,1.1384383491847825e-05,-8.450715438179348e-05,-3.984534222146739e-05,-0.0004041456139605978,-0.0002955561098845109,-5.210544752038043e-05,-2.1455184273097826e-05
-0.00010683806046195652,3.065026324728261e-06,-8.53828761888587e-05,-3.634245499320652e-05,-0.0002828581436820652,-0.00023863419242527173,-5.1229725713315214e-05,-1.8828018851902173e-05
-5.429475203804348e-05,-8.757218070652174e-07,-7.531207540760869e-05,-2.977454144021739e-05,-0.00014580768087635868,-0.00016069495159646739,-4.072106402853261e-05,-1.8390157948369565e-05
-6.130052649456522e-06,2.1893045176630435e-06,-6.217624830163043e-05,-2.057946246603261e-05,-1.1822244395380435e-05,-7.180918817934783e-05,-2.4520210597826086e-05,-1.0508661684782609e-05
3.3715289572010865e-05,4.378609035326087e-06,-3.853175951086956e-05,-4.378609035326087e-06,0.00012873110563858695,2.5395932404891303e-05,-7.443635360054348e-06,0.0
7.356063179347826e-05,-4.378609035326087e-07,-8.757218070652174e-07,1.313582710597826e-05,0.00027410092561141303,0.00012916896654211957,8.319357167119564e-06,5.254330842391304e-06
0.00011165453040081521,-8.757218070652174e-06,3.4153150475543474e-05,2.8898819633152172e-05,0.00039670197860054344,0.0002263740871263587,2.5395932404891303e-05,7.881496263586956e-06
0.0001409912109375,-1.1384383491847825e-05,6.524127462635869e-05,4.641325577445652e-05,0.0004974099864130435,0.0003086919369904891,4.4223951256793476e-05,1.2697966202445651e-05
0.00016025709069293476,-1.2260105298913043e-05,9.851870329483695e-05,6.217624830163043e-05,0.0005604619565217391,0.0003717439070991848,6.173838739809782e-05,1.926587975543478e-05
0.0001475591244904891,-1.751443614130435e-05,0.00012128747027853261,6.348983101222826e-05,0.00046982474949048913,0.00036517599354619565,6.874416185461957e-05,2.276876698369565e-05
7.750137992527173e-05,-1.970374065896739e-05,0.0001112166694972826,4.8164699388586956e-05,0.0001615706734035326,0.00022856339164402172,5.4732612941576086e-05,1.970374065896739e-05
-2.4958071501358695e-05,-1.0946522588315217e-05,7.00577445652174e-05,2.364448879076087e-05,-0.00017952297044836955,2.0141601562499998e-05,2.627165421195652e-05,1.4449409816576086e-05
-0.00010158372961956521,0.0,1.8828018851902173e-05,-4.378609035326087e-07,-0.00035466733186141305,-0.00013310971467391303,-2.1893045176630435e-06,1.1384383491847825e-05
-0.00013267185377038043,6.56791355298913e-06,-2.4082349694293478e-05,-1.8390157948369565e-05,-0.00042560079823369566,-0.00022111975628396737,-2.4958071501358695e-05,7.881496263586956e-06
-0.00014055335003396738,1.4011548913043478e-05,-5.692191745923913e-05,-2.977454144021739e-05,-0.0004842741593070652,-0.00029424252717391304,-3.940748131793478e-05,5.254330842391304e-06
-0.00012697966202445651,2.7585236922554347e-05,-7.706351902173912e-05,-3.8093898607336954e-05,-0.00043654732082201085,-0.00031175696331521736,-3.940748131793478e-05,4.816469938858695e-06
-8.100426715353261e-05,3.940748131793478e-05,-7.57499363111413e-05,-3.7656037703804346e-05,-0.00026928445567255433,-0.00023863419242527173,-2.8898819633152172e-05,7.005774456521739e-06
-3.1088124150815216e-05,3.721817680027174e-05,-6.173838739809782e-05,-2.8023097826086955e-05,-0.0001563163425611413,-0.00015938136888586955,-2.2330906080163042e-05,7.005774456521739e-06
-8.757218070652174e-06,2.4082349694293478e-05,-5.0791864809782605e-05,-1.7952297044836957e-05,-0.00010202159052309782,-0.00011734672214673912,-2.1893045176630434e-05,-4.378609035326087e-07
1.5762992527173912e-05,1.1822244395380435e-05,-3.590459408967391e-05,-5.6921917459239125e-06,7.881496263586956e-05,-2.7585236922554347e-05,-1.1822244395380435e-05,-1.2260105298913043e-05
7.312277088994565e-05,2.1893045176630435e-06,-4.816469938858695e-06,1.313582710597826e-05,0.00032138990319293477,0.00011997388756793478,1.1822244395380435e-05,-1.357368800951087e-05
0.0001261039402173913,-6.56791355298913e-06,3.3715289572010865e-05,2.8898819633152172e-05,0.0004072106402853261,0.00021936831266983694,3.4153150475543474e-05,-4.378609035326087e-06
0.00015281345533288044,-1.4011548913043478e-05,6.830630095108695e-05,3.8093898607336954e-05,0.0004277901027513587,0.00026534370754076087,5.035400390625e-05,1.7514436141304347e-06
0.00017251719599184782,-2.1893045176630434e-05,9.54536769701087e-05,4.8602560292119564e-05,0.000523681640625,0.0003288335385529891,6.61169964334239e-05,5.254330842391304e-06
0.00015894350798233695,-3.196384595788043e-05,0.00010727592136548913,5.0791864809782605e-05,0.00048733918563179346,0.0003441586701766304,6.918202275815218e-05,8.319357167119564e-06
7.268490998641304e-05,-3.7656037703804346e-05,9.282651154891303e-05,3.1088124150815216e-05,0.00016989003057065217,0.00020798392917798913,4.685111667798913e-05,2.1893045176630435e-06
-4.2034646739130435e-05,-3.327742866847826e-05,5.210544752038043e-05,2.1893045176630435e-06,-0.00020491890285326085,-1.4011548913043478e-05,1.1822244395380435e-05,-9.63293987771739e-06
-0.00011384383491847825,-2.5395932404891303e-05,2.627165421195652e-06,-1.8390157948369565e-05,-0.0004124649711277174,-0.0001860908840013587,-1.5325131623641304e-05,-1.1822244395380435e-05
-0.00013310971467391303,-1.313582710597826e-05,-3.459101137907609e-05,-2.714737601902174e-05,-0.00046238111413043475,-0.00026840873386548914,-3.240170686141304e-05,-8.757218070652174e-06
-0.00012916896654211957,3.065026324728261e-06,-5.954908288043478e-05,-2.714737601902174e-05,-0.00043654732082201085,-0.00028855033542798914,-4.1596785835597826e-05,-1.2260105298913043e-05
-0.0001160331394361413,1.4449409816576086e-05,-7.793924082880434e-05,-2.714737601902174e-05,-0.0003664895762567935,-0.0002697223165760869,-4.334822944972826e-05,-1.313582710597826e-05
-8.58207370923913e-05,1.751443614130435e-05,-8.53828761888587e-05,-3.1088124150815216e-05,-0.00026052723760190216,-0.00022330906080163043,-3.896962041440217e-05,-6.130052649456522e-06
-3.984534222146739e-05,1.751443614130435e-05,-7.793924082880434e-05,-2.8023097826086955e-05,-0.00013705046280570652,-0.00015368917713994565,-2.977454144021739e-05,-3.065026324728261e-06
1.7514436141304347e-06,1.5325131623641304e-05,-5.954908288043478e-05,-1.4887270720108696e-05,-1.4011548913043478e-05,-6.655485733695651e-05,-1.970374065896739e-05,-3.5028872282608694e-06
3.590459408967391e-05,1.1384383491847825e-05,-3.1525985054347824e-05,-3.940748131793478e-06,0.00011253025220788043,2.714737601902174e-05,-8.757218070652174e-06,2.1893045176630435e-06
7.00577445652174e-05,7.443635360054348e-06,-4.378609035326087e-07,5.6921917459239125e-06,0.0002368827488111413,0.00011384383491847825,4.378609035326087e-06,9.63293987771739e-06
9.808084239130435e-05,-8.757218070652174e-07,2.4958071501358695e-05,2.057946246603261e-05,0.0003389043393342391,0.00018784232761548912,2.1893045176630434e-05,7.443635360054348e-06
0.00011866030485733696,-1.4449409816576086e-05,4.991614300271739e-05,3.196384595788043e-05,0.00043610945991847826,0.0002596515157948369,4.115892493206522e-05,3.065026324728261e-06
0.00013705046280570652,-2.364448879076087e-05,7.925282353940217e-05,3.634245499320652e-05,0.0005149244225543478,0.0003279578167459239,5.954908288043478e-05,6.56791355298913e-06
0.00012741752292798914,-2.8460958729619564e-05,9.764298148777174e-05,4.072106402853261e-05,0.0004444288170855978,0.0003279578167459239,6.655485733695651e-05,9.195078974184782e-06
5.954908288043478e-05,-3.021240234375e-05,8.53828761888587e-05,3.721817680027174e-05,0.00015193773352581522,0.0001970374065896739,5.1229725713315214e-05,1.313582710597826e-06
-3.590459408967391e-05,-2.4958071501358695e-05,4.772683848505435e-05,1.7952297044836957e-05,-0.00017996083135190217,-8.757218070652174e-07,2.0141601562499998e-05,-8.319357167119564e-06
-0.00010464875594429347,-1.4011548913043478e-05,6.56791355298913e-06,-7.005774456521739e-06,-0.00035204016644021737,-0.00014712126358695652,-7.443635360054348e-06,-1.0946522588315217e-05
-0.0001366126019021739,-3.5028872282608694e-06,-2.933668053668478e-05,-2.8460958729619564e-05,-0.0004181571628736413,-0.00022856339164402172,-2.714737601902174e-05,-7.881496263586956e-06
-0.00015193773352581522,9.63293987771739e-06,-6.086266559103261e-05,-4.0283203124999995e-05,-0.0004650082795516304,-0.00028417172639266303,-4.55375339673913e-05,-7.443635360054348e-06
-0.0001409912109375,2.1017323369565217e-05,-7.618779721467391e-05,-3.5466733186141305e-05,-0.00040064272673233695,-0.0002828581436820652,-5.429475203804348e-05,-9.63293987771739e-06
-9.282651154891303e-05,2.2330906080163042e-05,-7.049560546875e-05,-2.276876698369565e-05,-0.0002219954780910326,-0.00020535676375679348,-4.2034646739130435e-05,-8.757218070652174e-06
-4.072106402853261e-05,1.970374065896739e-05,-5.954908288043478e-05,-1.970374065896739e-05,-0.00011909816576086957,-0.00013486115828804346,-2.583379330842391e-05,-6.56791355298913e-06
-8.757218070652174e-06,1.663871433423913e-05,-5.1229725713315214e-05,-2.364448879076087e-05,-9.063720703124999e-05,-0.00010377303413722825,-2.2330906080163042e-05,-1.0070800781249999e-05
3.459101137907609e-05,1.0946522588315217e-05,-3.240170686141304e-05,-1.5325131623641304e-05,7.443635360054348e-05,-1.8828018851902173e-05,-1.2697966202445651e-05,-1.0508661684782609e-05
0.00010027014690896739,5.254330842391304e-06,2.1893045176630435e-06,8.757218070652174e-06,0.0003209520422894022,0.00013310971467391303,1.1822244395380435e-05,3.940748131793478e-06
0.00013792618461277173,3.065026324728261e-06,3.853175951086956e-05,3.240170686141304e-05,0.0004194707455842391,0.00023644488790760867,3.021240234375e-05,2.0141601562499998e-05
0.00014361837635869565,-4.816469938858695e-06,6.874416185461957e-05,4.4661812160326084e-05,0.0004536238960597826,0.00028154456097146736,3.721817680027174e-05,1.970374065896739e-05
0.00016069495159646739,-1.7076575237771737e-05,9.983228600543478e-05,5.254330842391304e-05,0.0005552076256793478,0.00034459653108016305,5.210544752038043e-05,1.313582710597826e-05
0.0001668250042459239,-2.1455184273097826e-05,0.00012172533118206522,5.823550016983695e-05,0.0005105458135190217,0.0003594838018002717,6.655485733695651e-05,1.7952297044836957e-05
0.00010815164317255435,-1.4887270720108696e-05,0.00011253025220788043,4.728897758152174e-05,0.00017820938773777174,0.00022111975628396737,5.210544752038043e-05,2.2330906080163042e-05
3.5028872282608694e-06,-6.56791355298913e-06,6.830630095108695e-05,1.926587975543478e-05,-0.00020448104194972826,-2.627165421195652e-06,1.4449409816576086e-05,1.313582710597826e-05
-8.53828761888587e-05,-8.757218070652174e-07,1.2697966202445651e-05,-3.940748131793478e-06,-0.0004203464673913043,-0.0001768958050271739,-1.5762992527173912e-05,4.378609035326087e-07
-0.00013267185377038043,3.065026324728261e-06,-3.065026324728261e-05,-1.5762992527173912e-05,-0.0004960964037024456,-0.00026928445567255433,-3.065026324728261e-05,-6.56791355298913e-06
-0.00014449409816576087,7.881496263586956e-06,-5.954908288043478e-05,-2.4082349694293478e-05,-0.0004969721255095108,-0.0003073783542798913,-4.247250764266304e-05,-1.2697966202445651e-05
-0.0001322339928668478,1.313582710597826e-05,-7.925282353940217e-05,-2.8898819633152172e-05,-0.0004273522418478261,-0.00030431332795516304,-4.947828209918478e-05,-1.5325131623641304e-05
-0.00010333517323369564,1.620085343070652e-05,-8.757218070652174e-05,-2.583379330842391e-05,-0.0003021240234375,-0.0002579000721807065,-4.4661812160326084e-05,-1.4011548913043478e-05
-6.086266559103261e-05,1.7076575237771737e-05,-7.881496263586956e-05,-1.926587975543478e-05,-0.00015981922978940217,-0.00017864724864130434,-3.634245499320652e-05,-1.4887270720108696e-05
-1.2260105298913043e-05,1.313582710597826e-05,-5.692191745923913e-05,-1.4449409816576086e-05,-1.926587975543478e-05,-8.319357167119565e-05,-2.977454144021739e-05,-1.1384383491847825e-05
3.327742866847826e-05,5.6921917459239125e-06,-3.021240234375e-05,-9.63293987771739e-06,0.000120849609375,1.663871433423913e-05,-1.4449409816576086e-05,0.0
7.487421450407608e-05,-2.1893045176630435e-06,-3.5028872282608694e-06,1.7514436141304347e-06,0.0002543971849524456,0.00011296811311141304,8.757218070652174e-06,6.56791355298913e-06
0.00011034094769021739,-1.1384383491847825e-05,2.5395932404891303e-05,2.276876698369565e-05,0.00036561385444972824,0.00019659954568614129,3.021240234375e-05,6.130052649456522e-06
0.00013705046280570652,-2.057946246603261e-05,5.911122197690217e-05,4.8164699388586956e-05,0.00046675972316576086,0.00027541450832201087,4.904042119565217e-05,7.005774456521739e-06
0.00015587848165760868,-2.4958071501358695e-05,9.151292883831521e-05,6.743057914402173e-05,0.0005411960767663043,0.00034459653108016305,6.655485733695651e-05,1.0070800781249999e-05
0.0001475591244904891,-2.2330906080163042e-05,0.00010815164317255435,7.137132727581522e-05,0.00046238111413043475,0.0003375907566236413,7.137132727581522e-05,1.0070800781249999e-05
8.187998896059783e-05,-1.8828018851902173e-05,9.414009425951087e-05,5.298116932744565e-05,0.00016200853430706522,0.00020404318104619564,5.385689113451087e-05,8.757218070652174e-06
-1.7076575237771737e-05,-1.5762992527173912e-05,5.5170473845108694e-05,2.320662788722826e-05,-0.00017514436141304347,1.5325131623641304e-05,2.2330906080163042e-05,9.63293987771739e-06
-8.625859799592391e-05,-5.254330842391304e-06,1.357368800951087e-05,3.940748131793478e-06,-0.00034722369650135867,-0.00012128747027853261,-4.816469938858695e-06,1.1384383491847825e-05
-0.00011778458305027173,1.0508661684782609e-05,-1.970374065896739e-05,-1.7514436141304347e-06,-0.0004032698921535326,-0.00020491890285326085,-2.1893045176630434e-05,7.881496263586956e-06
-0.0001409912109375,1.926587975543478e-05,-4.991614300271739e-05,-7.881496263586956e-06,-0.0004339201554008152,-0.0002679708729619565,-3.1088124150815216e-05,-2.627165421195652e-06
-0.00013792618461277173,1.751443614130435e-05,-7.224704908288043e-05,-1.751443614130435e-05,-0.00036999246348505435,-0.0002697223165760869,-3.5466733186141305e-05,-1.4449409816576086e-05
-9.326437245244564e-05,1.2260105298913043e-05,-7.531207540760869e-05,-2.670951511548913e-05,-0.00021148681640625,-0.0001961616847826087,-3.240170686141304e-05,-2.0141601562499998e-05
-4.947828209918478e-05,7.881496263586956e-06,-6.699271824048912e-05,-3.678031589673913e-05,-0.00012128747027853261,-0.00013398543648097824,-2.364448879076087e-05,-2.0141601562499998e-05
-2.627165421195652e-05,6.130052649456522e-06,-5.7359778362771735e-05,-3.896962041440217e-05,-8.669645889945652e-05,-0.00010727592136548913,-1.1822244395380435e-05,-1.5762992527173912e-05
2.0141601562499998e-05,8.757218070652174e-06,-3.5466733186141305e-05,-2.276876698369565e-05,8.494501528532609e-05,-1.7076575237771737e-05,6.130052649456522e-06,-3.940748131793478e-06
9.151292883831521e-05,6.56791355298913e-06,1.313582710597826e-06,8.757218070652174e-07,0.0003257685122282609,0.00013705046280570652,3.021240234375e-05,7.443635360054348e-06
0.00012960682744565216,-8.319357167119564e-06,3.327742866847826e-05,1.1384383491847825e-05,0.0004093999448029891,0.00023162841796875,4.728897758152174e-05,6.56791355298913e-06
0.00013310971467391303,-2.5395932404891303e-05,5.56083347486413e-05,1.8390157948369565e-05,0.000425162937330163,0.0002622786812160326,5.210544752038043e-05,0.0
0.00014843484629755433,-2.933668053668478e-05,7.881496263586956e-05,3.8093898607336954e-05,0.0005153622834578804,0.00031438412873641304,5.385689113451087e-05,1.7514436141304347e-06
0.00014931056810461955,-2.977454144021739e-05,9.457795516304348e-05,5.210544752038043e-05,0.0004742033585258152,0.0003288335385529891,5.1229725713315214e-05,1.0070800781249999e-05
8.363143257472826e-05,-3.3715289572010865e-05,8.056640624999999e-05,3.5466733186141305e-05,0.00015456489894701087,0.00020010243291440218,2.7585236922554347e-05,9.195078974184782e-06
-1.8828018851902173e-05,-2.8898819633152172e-05,4.0283203124999995e-05,1.7514436141304347e-06,-0.00021586542544157607,-1.0070800781249999e-05,-1.4011548913043478e-05,1.7514436141304347e-06
-9.764298148777174e-05,-1.313582710597826e-05,-2.627165421195652e-06,-2.4958071501358695e-05,-0.0004225357719089674,-0.0001764579441236413,-4.641325577445652e-05,-4.378609035326087e-07
-0.00013836404551630435,0.0,-3.8093898607336954e-05,-4.1596785835597826e-05,-0.0004860256029211956,-0.00026884659476902173,-5.7359778362771735e-05,-1.313582710597826e-06
-0.00015062415081521738,3.065026324728261e-06,-6.743057914402173e-05,-5.035400390625e-05,-0.00047639266304347826,-0.0003082540760869565,-6.436555281929347e-05,-7.005774456521739e-06
-0.00013398543648097824,2.627165421195652e-06,-8.801004161005434e-05,-5.035400390625e-05,-0.00040545919667119565,-0.00029643183169157606,-7.049560546875e-05,-1.2260105298913043e-05
-9.370223335597826e-05,6.130052649456522e-06,-8.976148522418478e-05,-4.072106402853261e-05,-0.0002872367527173913,-0.00023819633152173913,-6.130052649456522e-05,-9.63293987771739e-06
-4.597539487092391e-05,1.1822244395380435e-05,-7.356063179347826e-05,-2.583379330842391e-05,-0.00015193773352581522,-0.00015587848165760868,-4.115892493206522e-05,-1.7514436141304347e-06
-2.627165421195652e-06,1.1822244395380435e-05,-5.254330842391304e-05,-1.0508661684782609e-05,-1.7076575237771737e-05,-6.874416185461957e-05,-2.2330906080163042e-05,4.378609035326087e-06
3.721817680027174e-05,7.005774456521739e-06,-3.196384595788043e-05,1.7514436141304347e-06,0.00012522821841032608,2.057946246603261e-05,-6.130052649456522e-06,3.5028872282608694e-06
7.618779721467391e-05,1.7514436141304347e-06,-6.56791355298913e-06,9.63293987771739e-06,0.00027059803838315217,0.00011471955672554347,7.881496263586956e-06,0.0
0.00010858950407608696,-1.7514436141304347e-06,2.364448879076087e-05,1.5762992527173912e-05,0.00038794476052989127,0.00020579462466032607,2.4082349694293478e-05,3.065026324728261e-06
0.00013792618461277173,-8.757218070652174e-06,5.7797639266304343e-05,2.7585236922554347e-05,0.00048164699388586956,0.00028636103091032606,4.115892493206522e-05,1.0946522588315217e-05
0.00016463569972826087,-1.4449409816576086e-05,9.501581606657609e-05,4.072106402853261e-05,0.0005372553286345108,0.00034591011379076083,4.947828209918478e-05,1.4011548913043478e-05
0.00015456489894701087,-1.313582710597826e-05,0.0001160331394361413,3.896962041440217e-05,0.00043173085088315215,0.0003283956776494565,4.247250764266304e-05,1.2697966202445651e-05
7.487421450407608e-05,-9.63293987771739e-06,9.720512058423913e-05,1.970374065896739e-05,0.0001112166694972826,0.00018828018851902174,2.320662788722826e-05,1.0508661684782609e-05
-3.327742866847826e-05,-1.313582710597826e-05,4.947828209918478e-05,-6.130052649456522e-06,-0.0002219954780910326,-9.63293987771739e-06,-4.816469938858695e-06,3.5028872282608694e-06
-0.00010333517323369564,-1.5325131623641304e-05,3.940748131793478e-06,-3.065026324728261e-05,-0.00037524679432744565,-0.0001567542034646739,-3.1088124150815216e-05,-1.0070800781249999e-05
-0.00013354757557744565,-7.443635360054348e-06,-3.196384595788043e-05,-4.247250764266304e-05,-0.0004273522418478261,-0.00023863419242527173,-4.291036854619565e-05,-2.276876698369565e-05
-0.00014974842900815217,1.7514436141304347e-06,-6.524127462635869e-05,-3.590459408967391e-05,-0.0004702626103940217,-0.00029073963994565217,-4.55375339673913e-05,-2.7585236922554347e-05
-0.00013880190641983695,6.130052649456522e-06,-8.53828761888587e-05,-2.4958071501358695e-05,-0.0004076485011888587,-0.00028898819633152174,-4.597539487092391e-05,-2.5395932404891303e-05
-9.676725968070652e-05,8.757218070652174e-06,-8.275571076766304e-05,-2.1893045176630434e-05,-0.00023907205332880435,-0.00021980617357336956,-3.7656037703804346e-05,-2.057946246603261e-05
-6.086266559103261e-05,9.195078974184782e-06,-6.961988366168479e-05,-2.057946246603261e-05,-0.00014405623726222825,-0.00015412703804347825,-2.2330906080163042e-05,-1.7952297044836957e-05
-3.721817680027174e-05,4.378609035326087e-06,-6.086266559103261e-05,-1.357368800951087e-05,-9.983228600543478e-05,-0.00011471955672554347,-9.63293987771739e-06,-1.4449409816576086e-05
1.357368800951087e-05,2.627165421195652e-06,-4.1596785835597826e-05,0.0,9.10750679347826e-05,-1.4887270720108696e-05,3.5028872282608694e-06,-3.940748131793478e-06
8.58207370923913e-05,8.319357167119564e-06,-2.1893045176630435e-06,1.313582710597826e-05,0.0003384664784307065,0.00013792618461277173,2.4082349694293478e-05,7.881496263586956e-06
0.0001256660793138587,1.0508661684782609e-05,3.590459408967391e-05,1.926587975543478e-05,0.0004190328846807065,0.00022987697435461956,4.4223951256793476e-05,1.0508661684782609e-05
0.00013748832370923914,0.0,6.655485733695651e-05,2.670951511548913e-05,0.0004505588697350543,0.0002727873429008152,5.867336107336956e-05,4.378609035326087e-06
0.00016463569972826087,-1.7076575237771737e-05,0.00010202159052309782,4.597539487092391e-05,0.0005600240956182065,0.0003428450874660326,6.699271824048912e-05,6.130052649456522e-06
0.00017120361328124998,-2.8023097826086955e-05,0.00012479035750679349,5.954908288043478e-05,0.0005101079526154891,0.0003581702190896739,6.524127462635869e-05,1.663871433423913e-05
9.370223335597826e-05,-2.320662788722826e-05,0.00010421089504076086,5.1229725713315214e-05,0.0001720793350883152,0.00021980617357336956,4.55375339673913e-05,1.926587975543478e-05
-2.4520210597826086e-05,-2.627165421195652e-06,5.210544752038043e-05,2.933668053668478e-05,-0.0002009781547214674,3.065026324728261e-06,1.1384383491847825e-05,1.313582710597826e-05
-0.00010245945142663043,1.357368800951087e-05,3.940748131793478e-06,5.6921917459239125e-06,-0.0003997670049252717,-0.00016375997792119566,-2.1017323369565217e-05,1.0508661684782609e-05
-0.0001313582710597826,1.2260105298913043e-05,-2.8460958729619564e-05,-1.751443614130435e-05,-0.00046150539232336956,-0.00025177001953125,-4.1596785835597826e-05,8.319357167119564e-06
-0.00013748832370923914,8.757218070652174e-06,-5.298116932744565e-05,-3.327742866847826e-05,-0.0004527481742527174,-0.00028417172639266303,-4.772683848505435e-05,2.1893045176630435e-06
-0.00012479035750679349,1.4449409816576086e-05,-6.786844004755434e-05,-3.196384595788043e-05,-0.0003783118206521739,-0.00027147376019021736,-4.115892493206522e-05,-2.627165421195652e-06
-9.10750679347826e-05,1.8390157948369565e-05,-6.743057914402173e-05,-1.8390157948369565e-05,-0.0002574622112771739,-0.00022024403447690216,-2.714737601902174e-05,-4.378609035326087e-06
-4.55375339673913e-05,1.5762992527173912e-05,-6.04248046875e-05,-3.940748131793478e-06,-0.00012785538383152173,-0.0001501862899116848,-1.0508661684782609e-05,-5.254330842391304e-06
-8.757218070652174e-07,1.4887270720108696e-05,-4.8602560292119564e-05,3.5028872282608694e-06,1.313582710597826e-06,-6.918202275815218e-05,5.6921917459239125e-06,-3.5028872282608694e-06
3.721817680027174e-05,1.4887270720108696e-05,-2.1893045176630434e-05,4.816469938858695e-06,0.00013792618461277173,2.7585236922554347e-05,2.1455184273097826e-05,0.0
7.706351902173912e-05,9.63293987771739e-06,1.0508661684782609e-05,5.254330842391304e-06,0.00026315440302309784,0.00012522821841032608,3.3715289572010865e-05,8.757218070652174e-07
0.00011428169582201086,4.378609035326087e-07,3.240170686141304e-05,1.1822244395380435e-05,0.00035773235818614127,0.0002018538765285326,4.1596785835597826e-05,2.627165421195652e-06
0.00013748832370923914,-8.757218070652174e-06,5.0791864809782605e-05,2.364448879076087e-05,0.0004439909561820652,0.00026840873386548914,4.8602560292119564e-05,4.816469938858695e-06
0.00014536981997282609,-1.8828018851902173e-05,7.356063179347826e-05,3.327742866847826e-05,0.0005066050653872282,0.00032708209493885866,5.604619565217391e-05,7.005774456521739e-06
0.00012785538383152173,-2.8460958729619564e-05,8.669645889945652e-05,3.678031589673913e-05,0.0004229736328125,0.00031920059867527174,5.341903023097826e-05,1.0946522588315217e-05
6.261410920516304e-05,-3.1088124150815216e-05,7.443635360054348e-05,2.933668053668478e-05,0.0001322339928668478,0.00019134521484375,3.196384595788043e-05,1.313582710597826e-05
-3.1525985054347824e-05,-2.627165421195652e-05,3.896962041440217e-05,7.005774456521739e-06,-0.00018740446671195653,1.7514436141304347e-06,2.1893045176630435e-06,4.378609035326087e-06
-0.0001007080078125,-2.276876698369565e-05,-3.940748131793478e-06,-1.8828018851902173e-05,-0.00035028872282608694,-0.00014318051545516303,-2.057946246603261e-05,-1.1822244395380435e-05
-0.00013004468834918478,-1.620085343070652e-05,-4.4223951256793476e-05,-3.5466733186141305e-05,-0.00041640571925951085,-0.00023031483525815216,-3.940748131793478e-05,-2.0141601562499998e-05
-0.00013705046280570652,0.0,-7.399849269701087e-05,-4.291036854619565e-05,-0.0004680733058763587,-0.00029205322265625,-5.4732612941576086e-05,-1.4449409816576086e-05
-0.00011822244395380434,1.313582710597826e-05,-8.53828761888587e-05,-3.984534222146739e-05,-0.0004102756666100543,-0.00029380466627038044,-5.166758661684782e-05,-6.130052649456522e-06
-7.662565811820652e-05,1.751443614130435e-05,-7.531207540760869e-05,-2.5395932404891303e-05,-0.00024169921875,-0.00021849259086277172,-3.327742866847826e-05,-4.816469938858695e-06
-4.55375339673913e-05,2.057946246603261e-05,-5.911122197690217e-05,-1.1822244395380435e-05,-0.00014230479364809781,-0.0001466834026834239,-2.276876698369565e-05,-8.757218070652174e-06
-2.583379330842391e-05,2.4082349694293478e-05,-4.8164699388586956e-05,-5.6921917459239125e-06,-0.00010158372961956521,-0.00010858950407608696,-2.1017323369565217e-05,-1.0070800781249999e-05
2.4520210597826086e-05,2.4082349694293478e-05,-2.8023097826086955e-05,3.940748131793478e-06,7.750137992527173e-05,-1.7076575237771737e-05,-6.56791355298913e-06,-3.065026324728261e-06
0.0001007080078125,1.751443614130435e-05,1.0070800781249999e-05,2.2330906080163042e-05,0.0003262063731317935,0.00013267185377038043,2.1455184273097826e-05,8.319357167119564e-06
0.00014449409816576087,4.378609035326087e-06,4.55375339673913e-05,3.8093898607336954e-05,0.0004242872155230978,0.0002320662788722826,4.247250764266304e-05,1.5325131623641304e-05
0.00015368917713994565,-1.2697966202445651e-05,6.655485733695651e-05,4.8164699388586956e-05,0.00046106753141983696,0.00028066883916440217,5.385689113451087e-05,1.357368800951087e-05
0.00016507356063179347,-2.7585236922554347e-05,8.888576341711956e-05,5.648405655570652e-05,0.0005595862347146738,0.00034591011379076083,6.655485733695651e-05,1.313582710597826e-05
0.00015456489894701087,-3.853175951086956e-05,0.00010508661684782608,5.954908288043478e-05,0.0005101079526154891,0.00035598091457201083,7.224704908288043e-05,1.7952297044836957e-05
8.144212805706522e-05,-4.247250764266304e-05,8.801004161005434e-05,4.685111667798913e-05,0.00017777152683423912,0.0002123625382133152,5.385689113451087e-05,1.7076575237771737e-05
-2.320662788722826e-05,-3.721817680027174e-05,4.291036854619565e-05,1.7952297044836957e-05,-0.00020579462466032607,-8.757218070652174e-06,2.1893045176630434e-05,9.63293987771739e-06
-0.00010508661684782608,-2.276876698369565e-05,-2.627165421195652e-06,-1.0946522588315217e-05,-0.00042166005010190214,-0.00017952297044836955,-6.130052649456522e-06,5.6921917459239125e-06
-0.0001466834026834239,-6.130052649456522e-06,-4.0283203124999995e-05,-2.714737601902174e-05,-0.00048690132472826086,-0.00026928445567255433,-2.670951511548913e-05,3.940748131793478e-06
-0.00015456489894701087,6.130052649456522e-06,-6.61169964334239e-05,-3.283956776494565e-05,-0.00047683052394701086,-0.00030124830163043477,-3.7656037703804346e-05,-4.378609035326087e-07
-0.00013573688009510868,1.7076575237771737e-05,-7.57499363111413e-05,-3.678031589673913e-05,-0.00040633491847826084,-0.00028636103091032606,-3.721817680027174e-05,-6.130052649456522e-06
-0.0001011458687160326,2.364448879076087e-05,-7.487421450407608e-05,-3.984534222146739e-05,-0.0002881124745244565,-0.0002329420006793478,-3.5466733186141305e-05,-1.0070800781249999e-05
-5.998694378396739e-05,1.970374065896739e-05,-6.699271824048912e-05,-3.590459408967391e-05,-0.00016025709069293476,-0.00016113281249999998,-3.283956776494565e-05,-1.1822244395380435e-05
-1.2697966202445651e-05,1.4011548913043478e-05,-5.0791864809782605e-05,-2.1893045176630434e-05,-3.240170686141304e-05,-8.231784986413044e-05,-2.1455184273097826e-05,-7.443635360054348e-06
3.940748131793478e-05,1.5325131623641304e-05,-2.933668053668478e-05,-1.7514436141304347e-06,0.00011209239130434782,9.195078974184782e-06,-4.816469938858695e-06,-1.313582710597826e-06
8.319357167119565e-05,1.663871433423913e-05,-4.378609035326087e-07,1.5762992527173912e-05,0.0002565864894701087,0.00010902736497961956,1.0508661684782609e-05,4.378609035326087e-07
0.00011253025220788043,1.0070800781249999e-05,3.327742866847826e-05,2.8898819633152172e-05,0.00037261962890624997,0.00019791312839673912,2.933668053668478e-05,3.065026324728261e-06
0.0001414290718410326,-3.5028872282608694e-06,6.217624830163043e-05,4.334822944972826e-05,0.00048164699388586956,0.0002776038128396739,5.4732612941576086e-05,9.63293987771739e-06
0.00016901430876358696,-1.4887270720108696e-05,8.757218070652174e-05,6.305197010869565e-05,0.0005635269828464674,0.0003463479746942935,7.662565811820652e-05,1.4011548913043478e-05
0.00015587848165760868,-1.620085343070652e-05,0.00010902736497961956,7.969068444293477e-05,0.00047770624575407605,0.0003441586701766304,8.144212805706522e-05,1.4011548913043478e-05
8.231784986413044e-05,-7.881496263586956e-06,0.00010640019955842391,7.925282353940217e-05,0.00017339291779891304,0.00021455184273097826,6.480341372282608e-05,1.751443614130435e-05
-1.0070800781249999e-05,4.816469938858695e-06,7.137132727581522e-05,6.480341372282608e-05,-0.0001514998726222826,1.970374065896739e-05,3.678031589673913e-05,2.057946246603261e-05
-7.399849269701087e-05,1.5762992527173912e-05,2.933668053668478e-05,5.0791864809782605e-05,-0.0003209520422894022,-0.0001256660793138587,1.0946522588315217e-05,1.4011548913043478e-05
-0.00011077880859375,2.4082349694293478e-05,-2.627165421195652e-06,3.853175951086956e-05,-0.00039670197860054344,-0.0002071082073709239,-6.130052649456522e-06,5.254330842391304e-06
-0.00013179613196331522,3.283956776494565e-05,-3.196384595788043e-05,1.926587975543478e-05,-0.0004339201554008152,-0.0002596515157948369,-1.620085343070652e-05,8.757218070652174e-07
-0.000120849609375,3.940748131793478e-05,-5.56083347486413e-05,-2.627165421195652e-06,-0.0003529158882472826,-0.0002579000721807065,-1.8828018851902173e-05,0.0
-8.319357167119565e-05,3.3715289572010865e-05,-6.173838739809782e-05,-1.926587975543478e-05,-0.00019528596297554347,-0.00019003163213315218,-1.2260105298913043e-05,-1.7514436141304347e-06
-5.7797639266304343e-05,1.8828018851902173e-05,-5.823550016983695e-05,-3.4153150475543474e-05,-0.00013004468834918478,-0.00013310971467391303,-6.130052649456522e-06,-4.816469938858695e-06
-4.2034646739130435e-05,9.63293987771739e-06,-5.648405655570652e-05,-4.55375339673913e-05,-0.0001007080078125,-0.00010552447775135868,-7.881496263586956e-06,-8.319357167119564e-06
6.130052649456522e-06,5.6921917459239125e-06,-3.940748131793478e-05,-4.509967306385869e-05,8.363143257472826e-05,-1.7076575237771737e-05,-4.378609035326087e-06,-5.254330842391304e-06
7.57499363111413e-05,1.313582710597826e-06,1.7514436141304347e-06,-3.721817680027174e-05,0.00031394626783288045,0.00012697966202445651,8.757218070652174e-06,3.5028872282608694e-06
0.00011340597401494565,-8.757218070652174e-07,4.597539487092391e-05,-3.3715289572010865e-05,0.00038093898607336954,0.00021805472995923913,1.1384383491847825e-05,8.757218070652174e-06
0.00012128747027853261,-9.195078974184782e-06,7.618779721467391e-05,-3.021240234375e-05,0.0004124649711277174,0.0002596515157948369,3.065026324728261e-06,7.443635360054348e-06
0.00013792618461277173,-3.1525985054347824e-05,0.0001007080078125,-2.1455184273097826e-05,0.0005197408924932065,0.0003231413468070652,2.1893045176630435e-06,6.56791355298913e-06
0.00013748832370923914,-4.55375339673913e-05,0.00011253025220788043,-1.620085343070652e-05,0.0004588782269021739,0.00033671503481657607,3.065026324728261e-06,7.881496263586956e-06
7.137132727581522e-05,-3.196384595788043e-05,9.063720703124999e-05,-2.320662788722826e-05,0.00011515741762907608,0.00020272959833559783,-9.63293987771739e-06,7.881496263586956e-06
-3.50288722826087e-05,-1.4887270720108696e-05,3.984534222146739e-05,-3.283956776494565e-05,-0.00025308360224184784,-1.2697966202445651e-05,-3.196384595788043e-05,1.313582710597826e-06
-0.00011253025220788043,-1.7952297044836957e-05,-1.751443614130435e-05,-2.977454144021739e-05,-0.0004496831479279891,-0.00018828018851902174,-5.1229725713315214e-05,-1.2260105298913043e-05
-0.0001409912109375,-2.4520210597826086e-05,-6.56791355298913e-05,-1.663871433423913e-05,-0.0005114215353260869,-0.00028942605723505433,-6.173838739809782e-05,-2.4082349694293478e-05
-0.00014361837635869565,-1.5325131623641304e-05,-9.195078974184782e-05,-8.319357167119564e-06,-0.0005039778999660325,-0.00033014712126358694,-6.305197010869565e-05,-2.4958071501358695e-05
-0.00012829324473505435,2.1893045176630435e-06,-9.414009425951087e-05,-7.005774456521739e-06,-0.0004347958772078804,-0.00031920059867527174,-5.823550016983695e-05,-2.0141601562499998e-05
-8.844790251358695e-05,1.313582710597826e-05,-8.757218070652174e-05,-4.378609035326087e-06,-0.0003130705460258152,-0.00026884659476902173,-5.0791864809782605e-05,-1.4887270720108696e-05
-3.678031589673913e-05,9.195078974184782e-06,-7.969068444293477e-05,4.378609035326087e-06,-0.00016770072605298912,-0.00019528596297554347,-4.291036854619565e-05,-1.0946522588315217e-05
6.130052649456522e-06,-3.5028872282608694e-06,-6.655485733695651e-05,1.8828018851902173e-05,-2.5395932404891303e-05,-0.00010815164317255435,-3.240170686141304e-05,-9.195078974184782e-06
4.4223951256793476e-05,-1.1384383491847825e-05,-4.4223951256793476e-05,3.283956776494565e-05,0.00011822244395380434,-1.2260105298913043e-05,-1.7952297044836957e-05,-7.005774456521739e-06
8.187998896059783e-05,-6.130052649456522e-06,-9.195078974184782e-06,3.7656037703804346e-05,0.00026928445567255433,9.282651154891303e-05,8.757218070652174e-07,-4.378609035326087e-07
0.00011340597401494565,8.319357167119564e-06,3.896962041440217e-05,3.940748131793478e-05,0.0004072106402853261,0.00019922671110733693,2.8023097826086955e-05,8.319357167119564e-06
0.0001414290718410326,2.320662788722826e-05,8.801004161005434e-05,4.947828209918478e-05,0.0005263088060461957,0.00029468038807744563,5.954908288043478e-05,1.751443614130435e-05
0.00016463569972826087,2.977454144021739e-05,0.000120849609375,6.130052649456522e-05,0.00059417724609375,0.0003616731063179348,8.494501528532609e-05,2.5395932404891303e-05
0.00014887270720108695,2.320662788722826e-05,0.00012260105298913043,5.210544752038043e-05,0.00048164699388586956,0.0003441586701766304,9.54536769701087e-05,2.8898819633152172e-05
7.00577445652174e-05,9.195078974184782e-06,8.932362432065217e-05,2.320662788722826e-05,0.00014580768087635868,0.00019966457201086956,8.625859799592391e-05,2.4958071501358695e-05
-3.3715289572010865e-05,-4.378609035326087e-06,4.509967306385869e-05,4.378609035326087e-07,-0.00019791312839673912,3.065026324728261e-06,6.261410920516304e-05,1.2697966202445651e-05
-0.00010377303413722825,-1.0508661684782609e-05,1.313582710597826e-05,-7.881496263586956e-06,-0.00036035952360733694,-0.00013267185377038043,3.590459408967391e-05,3.065026324728261e-06
-0.00013354757557744565,-7.005774456521739e-06,-1.1384383491847825e-05,-1.663871433423913e-05,-0.0004172814410665761,-0.00020798392917798913,7.881496263586956e-06,1.7514436141304347e-06
-0.0001475591244904891,-9.195078974184782e-06,-4.334822944972826e-05,-2.7585236922554347e-05,-0.0004479317043138587,-0.00026359226392663043,-2.2330906080163042e-05,-4.816469938858695e-06
-0.00013923976732336957,-3.1088124150815216e-05,-8.275571076766304e-05,-3.634245499320652e-05,-0.00036254882812499997,-0.00026403012483016303,-4.1596785835597826e-05,-2.4520210597826086e-05
-0.00010027014690896739,-5.911122197690217e-05,-0.00011778458305027173,-4.641325577445652e-05,-0.0001869666058084239,-0.00019791312839673912,-4.55375339673913e-05,-4.1596785835597826e-05
-5.867336107336956e-05,-6.830630095108695e-05,-0.00013179613196331522,-5.5170473845108694e-05,-0.0001059623386548913,-0.0001409912109375,-4.904042119565217e-05,-4.8602560292119564e-05
-2.714737601902174e-05,-5.7359778362771735e-05,-0.0001164710003396739,-4.904042119565217e-05,-7.750137992527173e-05,-0.00010640019955842391,-5.0791864809782605e-05,-4.685111667798913e-05
2.4082349694293478e-05,-3.5466733186141305e-05,-7.750137992527173e-05,-2.364448879076087e-05,9.851870329483695e-05,-9.195078974184782e-06,-3.4153150475543474e-05,-3.1088124150815216e-05
9.151292883831521e-05,-1.1822244395380435e-05,-2.364448879076087e-05,9.195078974184782e-06,0.0003156977114470109,0.00012916896654211957,-1.313582710597826e-06,-7.881496263586956e-06
0.00012829324473505435,-1.313582710597826e-06,2.7585236922554347e-05,3.590459408967391e-05,0.0003634245499320652,0.00019966457201086956,2.276876698369565e-05,5.6921917459239125e-06
0.00014055335003396738,-5.6921917459239125e-06,6.305197010869565e-05,5.56083347486413e-05,0.0003826904296875,0.00022330906080163043,3.327742866847826e-05,5.6921917459239125e-06
0.00016375997792119566,-7.443635360054348e-06,9.019934612771738e-05,7.224704908288043e-05,0.0004917177946671196,0.0002780416737432065,4.247250764266304e-05,6.56791355298913e-06
0.00016025709069293476,4.378609035326087e-07,0.00011209239130434782,7.706351902173912e-05,0.0004396123471467391,0.00028898819633152174,4.641325577445652e-05,1.663871433423913e-05
8.187998896059783e-05,1.0508661684782609e-05,0.00010815164317255435,6.086266559103261e-05,0.00010289731233016304,0.00016025709069293476,3.240170686141304e-05,2.4958071501358695e-05
-3.065026324728261e-05,1.7952297044836957e-05,6.699271824048912e-05,3.065026324728261e-05,-0.00026140295940896735,-3.984534222146739e-05,7.005774456521739e-06,2.2330906080163042e-05
