6.269729023575783,-5.672098560333252,5.085247439146042,-0.07954820229949061,-0.28630486074728695,0.6949192867995311,-0.6548196660588524
6.423028984665871,-5.583472312688828,4.9008081310987475,-0.3187223982306035,-0.00656190237518082,0.7539582279507695,-0.5743865987370237
6.389494618177414,-5.591855465769768,4.675648813247681,-0.5158015468074372,0.28079604985474593,0.7006167144176761,-0.4052635712417373
6.287694008946419,-5.827794125676156,4.479233238101005,-0.6323353553905592,0.5207347792232367,0.5448160090277638,-0.17933991284006437
6.165532810091973,-5.945164116024971,4.567859778106213,-0.6557522923800685,0.6849771049707398,0.3089168626167693,0.07325072487833348
6.038581572175026,-5.741562897562981,4.752298793792725,-0.5822608080219372,0.7489692236875576,0.02741202808734505,0.31506512680180376
5.867316625714302,-5.460113604068757,5.165489948987961,-0.42290513773801586,0.7027214014343172,-0.25846212531662943,0.5104225761247145
5.582274218201637,-5.201419919729233,5.838572883009911,-0.20127997152411561,0.5526948071287606,-0.5063764541007136,0.6305534949300821
5.342743028998375,-5.181059914827347,6.857778239250184,0.049878239326614615,0.3211361150175479,-0.6796362358490708,0.6576308567836665
5.334359875917435,-5.4265792375803,7.421873751282693,0.29900468231661453,0.03592479701931558,-0.7535720082184924,0.5843242570195166
5.803841006755829,-5.72479542195797,6.905684477090836,0.4981618905230075,-0.24753746805797883,-0.7138742924340565,0.42537445543869146
6.381110880374909,-6.41584275662899,5.6086229413747795,0.6241146968876998,-0.4945425130230505,-0.5696973843347127,0.2033554479816239
6.442191479802132,-7.036228829026222,4.763077843487263,0.6581317672435931,-0.6692060120345992,-0.3415405395184012,-0.0487437202832573
5.9751053684949875,-7.105692581534386,4.766670665144921,0.5955896567613026,-0.7452410697320967,-0.06245120441516577,-0.2932380531421684
5.304418038725853,-6.636211450695992,5.14393243432045,0.4465241950515756,-0.7108980889561292,0.22599276506935362,-0.4941328975977758
4.854099695384503,-6.021814096570015,5.563111723065377,0.2274738382345173,-0.5673016858825648,0.4860866625603844,-0.6246152468476602
4.891226883530617,-5.681679807901383,6.050557839274407,-0.019867989907062202,-0.34292029887635844,0.6676309021739554,-0.66051488254088
5.1918386721611025,-5.286453638076782,6.482911489605904,-0.26462167485821747,-0.06898146863678216,0.7515319581361827,-0.6003471013338363
5.636169174313546,-5.012189987897873,6.429017118215561,-0.4711617826705104,0.21452261504276818,0.7263634203769376,-0.4520871638570105
6.074510958194733,-5.081654325127602,5.808631630539894,-0.6089481031819612,0.4668768580297396,0.5958980836198932,-0.2368832645112539
6.291286538243294,-5.4828692132234575,5.102014330029488,-0.6571317126483942,0.6517904213740939,0.3783581744312085,0.013865449067828809
6.143975295424462,-5.869711645245553,4.884040947854519,-0.6082365602837787,0.7416395058686485,0.10459802454492921,0.2628276685023147
5.73078355550766,-5.8601303976774215,5.122374334931374,-0.4653428774498712,0.7204606504478182,-0.1918903879661805,0.47704353739377886
5.442148618698121,-5.632576060295105,5.527182337045669,-0.25676286424062367,0.5918414639652639,-0.4529168641702913,0.6153558541434007
5.479276099205017,-5.617006679177284,5.7499460506439215,-0.010868927312290699,0.37604182434104527,-0.6468096881295644,0.6634091046308259
5.688866035938263,-5.790666645169258,5.74036480307579,0.2365897553373706,0.10518267561755544,-0.7452936634622906,0.6144096740956259
5.9367803782224655,-5.893664764165878,5.577483594417572,0.4496491610747807,-0.18086581170862656,-0.7342200972190992,0.47541985543233484
6.044569705724716,-5.939175982475281,5.559519193768502,0.5969869991093064,-0.4403666482565455,-0.6152191655728819,0.2668128863259196
5.969117234945298,-5.870909739732743,5.593053560256958,0.6568115322614314,-0.635358330591805,-0.40565010713993677,0.019141405730591005
5.850549150109291,-5.911629749536514,5.464904227852822,0.6179551590320336,-0.7384217510674349,-0.12952102947352226,-0.236831251950236
5.773899169564247,-6.015825963020325,5.185850538611413,0.48809954421426094,-0.729391215698337,0.15970686044496107,-0.45193031335234246
5.703237907290459,-6.037383477687836,5.044526844620705,0.2865006951320584,-0.6132920443584866,0.42546135597685547,-0.6006437001965231
5.651738555431367,-5.885281611084938,5.116386201381683,0.04295895392942666,-0.40702558930905225,0.6285582991959091,-0.6613615973405578
5.636169174313546,-5.654133574962616,5.349929257035256,-0.20689503698974374,-0.14097235994940582,0.7390330380415854,-0.6254209830844599
5.688866035938263,-5.53317047059536,5.643354817628861,-0.4265739505668386,0.14577905443916025,0.7408439914970039,-0.49792902330293215
5.763120412230492,-5.419393009543419,5.9367803782224655,-0.5836629394892439,0.4111645904676023,0.6339208021659123,-0.297364539233767
5.893664764165878,-5.517601089477539,5.850549150109291,-0.6552519716804603,0.620398334895356,0.428446823991681,-0.046734127566270274
5.92240850687027,-5.846956620812416,5.273279276490212,-0.627324653266544,0.7330166843745182,0.16392380326202657,0.20561932437567929
5.844561016559601,-6.258950266242028,4.995423097014427,-0.5066715486712883,0.7380330573976265,-0.125149890973502,0.4277015931051353
5.698447283506393,-6.308054013848305,5.412207366228104,-0.31162760052352184,0.6337624271690648,-0.39602166910740727,0.5868562533517995
5.449334846735001,-5.982291596531868,5.82539852142334,-0.07110763927671186,0.43575104099310696,-0.6082817776450402,0.6595892759095668
5.4062192326784135,-5.611017960906029,5.799050382971764,0.179641740802232,0.17380675892943054,-0.7306742760410925,0.6353228768459513
5.645750421881676,-5.599041693806648,5.431369861364365,0.4086940883317701,-0.12008822705583092,-0.7447355983322784,0.5137283800433005
5.838572883009911,-5.903246011734009,5.281663014292717,0.5722251719079111,-0.3896188265618276,-0.6475495904986881,0.31848869755224823
5.917617883086205,-5.8601303976774215,5.458916094303131,0.6517734450538627,-0.6020852852217862,-0.45485960899513994,0.07607510595988685
5.897257878184319,-5.450532356500626,5.508019841909409,0.6347259342012748,-0.7262221046181072,-0.19502964796945732,-0.17801089750146015
5.902048501968384,-4.869669076502324,5.976303462982178,0.523298560623105,-0.7432329045155537,0.09419813735074954,-0.4060667149801985
5.817014783620834,-3.9534624239802363,6.418238360881806,0.3330881230628624,-0.6505683529725362,0.36976241322107195,-0.5736626867367184
5.928397225141525,-4.242097360789776,6.217032161951066,0.09200657960636105,-0.4617568580843894,0.5909303463023083,-0.655070010869224
5.989477239847184,-5.531972960829735,5.273279276490212,-0.16986426910554145,-0.19752264254778076,0.7269281830320179,-0.6353789046513513
5.846956620812416,-7.781170535087586,4.996620606780052,-0.39978089071033046,0.09134625447539416,0.7500633436473375,-0.518879640892517
5.278069900274277,-8.988407728672028,5.582274218201637,-0.5688147458190793,0.366197252654293,0.660711874431359,-0.32528322439471785
5.008597458600998,-8.554856568574905,5.547542341947556,-0.6528763712553185,0.5855196661933104,0.47302043014086387,-0.08468079491073505
5.330766761898995,-8.045852937698365,5.080456815361977,-0.641695722813963,0.7168875168793667,0.2156156102002164,0.1667596956785113
5.300825509428979,-8.05064356148243,5.148723058104515,-0.5386936061928328,0.7415835848296597,-0.07311695060107588,0.3930863733239197
5.23734930574894,-8.563240306377411,5.699644793272019,-0.3591751212059037,0.6574308970737435,-0.35000026750511193,0.5623856867185432
5.257709895372391,-8.166816042065621,5.928397225141525,-0.12347125578249603,0.4736493959431585,-0.5791657961919453,0.6519034278476565
5.817014783620834,-6.557166450619698,5.352324276566506,0.12428193701690242,0.2266228973659591,-0.7180203889204777,0.6462528789995993
6.458958370685577,-4.984644339680672,4.469651990532875,0.35503086266866024,-0.051859929893491315,-0.7547651490865032,0.5491750212351414
6.51045772254467,-3.0779757812619213,3.613328135311604,0.5357622560279857,-0.32393122058221496,-0.6851335835602399,0.3723161855544601
6.300867785811424,-2.2444072428345683,3.3666110104322433,0.6390276668049384,-0.5519129734783248,-0.5171120261297323,0.14011018234287537
5.534367980360985,-3.4217031839489938,4.3965951240062715,0.6482123503595673,-0.7016426076999773,-0.27302189697022006,-0.11391858354142123
5.096026196479798,-4.657684120237827,5.73078355550766,0.5571067254496617,-0.7495252980174577,0.018394175656981853,-0.3570792326536177
5.456520490050316,-5.224175528883935,6.394285241961479,0.38337289529980345,-0.6853279336067298,0.30048035981965854,-0.5413523805530223
6.052953443527222,-5.401428608894348,6.085289715528488,0.1520852003036508,-0.5204641234983651,0.5385895383885873,-0.6449096813803042
6.402668979763985,-5.739167293310166,5.346336143016815,-0.10192883048688658,-0.2782406816229615,0.6973190926930473,-0.6526398084482057
6.246973414421082,-6.0026516014337545,4.941528725624084,-0.34085109931022506,0.0057316189801858925,0.7521550677679077,-0.5639596002143514
5.8565378683805465,-5.917617883086205,4.860087828934193,-0.5293209504935444,0.2888048563133173,0.6943697866639061,-0.3927616143499466
5.605029827356339,-6.027802230119706,4.982248735427857,-0.6399858543644845,0.5285006123970087,0.5328474002923826,-0.1648601131596029
5.676889184117318,-6.60866580247879,5.266093048453332,-0.6563905469051071,0.692085682452446,0.2857282456047671,0.09234840410948336
5.692458565235138,-7.261388146877289,6.0026516014337545,-0.5757759769797695,0.7481324621119697,0.0014311382448352454,0.3298147894055058
5.472089871168137,-6.811069511175156,6.7667563873529435,-0.41112727734680105,0.6941186326047728,-0.2827257867579565,0.5188832384982016
5.43616048514843,-5.385858643054963,6.870952016115189,-0.1861596424781976,0.5388658102519105,-0.5250442082411193,0.6318993633850233
5.52957735657692,-4.575045713782311,6.476923356056214,0.06627706473070658,0.3051516131673098,-0.6908116972922298,0.652126554095368
5.424183633327484,-4.906796264648437,6.20864842414856,0.3091212485610547,0.026601549018937718,-0.755927258466331,0.576463694594399
5.522391713261604,-5.193036181926727,5.843363506793976,0.5067540369257818,-0.25599437760468086,-0.7105547136538121,0.41566720293831755
5.611017960906029,-5.805038516521454,5.63137855052948,0.6317335410798952,-0.5063543950692323,-0.5560397544132727,0.1879833800652483
5.53317047059536,-6.203857800364495,5.74036480307579,0.6601125051055546,-0.6757056763413424,-0.32212305308804107,-0.06253045843904621
5.63018045604229,-6.212241538167,5.8493516403436665,0.5916355943752258,-0.7455920697324673,-0.04095365545653026,-0.3039450396454542
5.508019841909409,-6.139184671640397,6.226613409519196,0.4366629366904958,-0.7057054550288799,0.24620020080548502,-0.5006902751069291
5.369091752171517,-5.527182337045669,6.646990792751312,0.2177587244393168,-0.5622886870364936,0.4970558753601178,-0.6239775854398336
5.650541045665741,-5.269686162471771,6.3152396571636205,-0.03310232682339111,-0.3366846218273619,0.6749057918261944,-0.6557818795478427
5.81941038787365,-5.710423550605774,5.72240040242672,-0.28479569498161583,-0.054927388810871225,0.7545379823502163,-0.5886822804104285
5.704435417056084,-6.1894859290122985,5.390649266839028,-0.48869350558851404,0.2289167791899753,0.7204052210781733,-0.4356513321960641
5.555926079750061,-6.317635261416435,5.14992056787014,-0.6206725226046951,0.4794690002343353,0.5805792795711351,-0.21863850902911194
5.52119420349598,-6.270926533341408,5.030154973268509,-0.6616179865117964,0.6595327180389027,0.3554820972513379,0.030178010108089223
5.456520490050316,-6.314042147397996,5.286453638076782,-0.606048984756516,0.7424999869861573,0.07810376372398999,0.2744051739550468
5.401428608894348,-6.0134303587675095,5.773899169564247,-0.46217577651050484,0.7162551129098804,-0.2104775115080154,0.47861402192869346
5.536763584613801,-5.415800480246544,6.094870963096619,-0.25081493653978265,0.5851603560566637,-0.4677844495023999,0.6130717202023919
5.8230035018920905,-5.212198677062989,6.021814096570015,0.0036071110782085122,0.3626980212184718,-0.660189335433461,0.6577135968898616
6.049360329508782,-5.527182337045669,5.767911036014557,0.2522784161638178,0.09136060582399298,-0.750576790621758,0.6038570375687363
6.005047205686569,-5.854142264127732,5.527182337045669,0.46408227427711973,-0.19367891692645248,-0.7311474734725666,0.4610200558269184
5.7954572689533235,-5.8876766306161885,5.346336143016815,0.6074951295004951,-0.4506545963811609,-0.6043978337373878,0.25012668983389724
5.6241923224926,-5.924804111123085,5.299627414941788,0.661384716072439,-0.6414969106560807,-0.3886450017338491,0.002652091962991254
5.572692970633507,-6.126010310053826,5.280464919805527,0.6181854465400588,-0.7378987502506132,-0.11571186518364597,-0.24487333934173575
5.607425431609154,-6.323623394966126,5.316394890546799,0.48463493982674194,-0.725633984789201,0.17401760959156146,-0.4564013220512344
5.614611074924469,-6.12121968626976,5.52358922302723,0.27483123710626084,-0.6027213968310388,0.4435815242508313,-0.6036804951760434
5.656529179215432,-5.678086693882943,5.7080285310745245,0.029111311299327317,-0.3930340173316621,0.6409569483876117,-0.6586736544664654
5.745155426859856,-5.385858643054963,5.7882710409164435,-0.22099002849160057,-0.1257756630721087,0.7444633128705901,-0.6173477672072679
5.868514135479927,-5.617006679177284,5.6697035408020025,-0.4388045568879371,0.16000294321741465,0.7390450071226328,-0.4854504057710257
5.917617883086205,-5.885281611084938,5.446939242482186,-0.5922893922686125,0.4225753276910113,0.6253604932087394,-0.2820418794552223
5.7846785116195685,-5.994267863631249,5.349929257035256,-0.6586696552835481,0.6233167693066195,0.41981533471151056,-0.03722331327102167
5.6577266889810565,-5.997860977649689,5.359510504603386,-0.6282763419447097,0.7325873899049642,0.15249371378885634,0.21290895133762783
5.606227337121964,-5.92001348733902,5.437357994914056,-0.5018007696638263,0.7329516921220122,-0.1439265889991258,0.43619140472887286
5.684075412154198,-5.831386654973031,5.454125470519066,-0.3037978672699301,0.6243459508251934,-0.4119661401507443,0.5900702406491318
5.82899163544178,-5.723597912192345,5.437357994914056,-0.061102241360238875,0.42430752573113356,-0.619454921128734,0.657651306087103
5.805038516521454,-5.612216055393219,5.508019841909409,0.19064481154301893,0.16191145436193913,-0.7362087809728267,0.6288369165345123
5.743957917094231,-5.5966460895538335,5.654133574962616,0.41432970118527523,-0.12447369650332248,-0.7450063708905361,0.5077427546770437
5.770306640267372,-5.845758526325226,5.639761703610421,0.5770749284675436,-0.3928260094820445,-0.6444125587208186,0.31209727229099526
5.808631630539894,-6.120022176504135,5.493647970557213,0.6555302957177482,-0.6077211105300155,-0.44361145779759265,0.06452873563816994
5.745155426859856,-6.11163843870163,5.437357994914056,0.6349386058797367,-0.7273107264995032,-0.18125027652231787,-0.18713741246165777
5.658924198746681,-5.848154130578042,5.492450460791588,0.5211528400448712,-0.7400471370428294,0.10756913285214177,-0.41128923390397065
5.674494164586068,-5.648145441412926,5.5199961090087895,0.33084478175493437,-0.644256576240829,0.38038014447144924,-0.5751401047117598
5.7954572689533235,-5.688866035938263,5.479276099205017,0.09189981393901912,-0.45400620355316473,0.5973407141741063,-0.6546883705421876
5.831386654973031,-5.857735378146172,5.469694851636887,-0.16049726419912277,-0.19707444448351694,0.7266830256863079,-0.638227288429054
5.7882710409164435,-5.9870822203159335,5.4445442229509355,-0.3892302732881449,0.08890327632479215,0.7493839113233923,-0.5282232059124323
5.700842303037644,-5.982291596531868,5.536763584613801,-0.5638900408550539,0.3680675929922415,0.6587387930339879,-0.3355852669076939
5.628982946276665,-5.9331878489255905,5.687667941451073,-0.6510791286783894,0.5862659309813619,0.47208271186573186,-0.09760194428105769
5.686470431685448,-5.8218054074048995,5.754736674427987,-0.6427386342892061,0.71844642681599,0.21624393558648008,0.15479127917764798
5.782282907366753,-5.778689793348312,5.71281915485859,-0.539919434878993,0.7453061327069546,-0.07115859523833228,0.38463258664998673
5.868514135479927,-5.7463535213470465,5.536763584613801,-0.35757847882959964,0.663059340153774,-0.3479495870832966,0.5580510978049544
5.855339773893356,-5.753539164662361,5.384661133289337,-0.12259352780081578,0.4835925034322113,-0.5737994232660355,0.6495100764615451
5.733179159760476,-5.8948628586530685,5.359510504603386,0.13023096590018984,0.23296854377598863,-0.7155100849936699,0.645608915214118
5.613413565158845,-5.996663467884064,5.484066722989082,0.36872276525193604,-0.05891420670062179,-0.7516943784117427,0.5436250547003753
5.609820451140404,-5.949954739809036,5.589460446238518,0.5472884137953627,-0.3354361032637792,-0.6751565287578928,0.3634854528425583
5.753539164662361,-5.843363506793976,5.576286084651947,0.6456848183650817,-0.5626208012489374,-0.49964757211549377,0.1300048191950875
5.830189145207405,-5.778689793348312,5.585867332220078,0.6493732304192471,-0.7073272435081412,-0.2508932340865086,-0.1226994836813045
5.842165997028351,-5.8218054074048995,5.607425431609154,0.5576742880863979,-0.7483621826807609,0.034641165245100414,-0.35742610650465695
5.8182128781080245,-5.903246011734009,5.557123589515687,0.38403355205973866,-0.6797125185645738,0.31506877424386803,-0.5396672961144211
5.80982914030552,-5.893664764165878,5.424183633327484,0.14790052125113345,-0.5064998847864675,0.5541174988934303,-0.6438455559721038
5.7882710409164435,-5.831386654973031,5.321185514330864,-0.10501352076580495,-0.26184612821845565,0.7054696166389332,-0.6501702743071931
5.705632926821709,-5.858932887911797,5.384661133289337,-0.3423705346273703,0.021335985182732616,0.7532656672740259,-0.5611755761448172
5.709226040840149,-5.878095383048058,5.469694851636887,-0.5295141276858736,0.30145400407066225,0.6904239573122284,-0.38994234340496486
5.765516016483307,-5.840967902541161,5.502031708359719,-0.6390324241674438,0.5372275119702131,0.5262330776019758,-0.16156394796651768
5.806236026287079,-5.800247892737389,5.517601089477539,-0.6548246638453673,0.6941686163600941,0.2848378375141893,0.0905648828230607
5.81941038787365,-5.736772273778915,5.5199961090087895,-0.5744560294615172,0.7492889079408908,0.0017196377540860744,0.32948967434208043
5.839770392775536,-5.748748540878296,5.498438594341279,-0.40478165167608327,0.6920260397830869,-0.2881187584696737,0.5236786760470712
5.82899163544178,-5.843363506793976,5.474485475420952,-0.17874403071151482,0.5331190160832233,-0.5286754898715873,0.6358749189773836
5.790666645169258,-5.8565378683805465,5.4325673711299896,0.07348273020479276,0.29594126629758566,-0.6916630334947143,0.6546917620993262
5.727191026210785,-5.848154130578042,5.443346128463745,0.31483095835318053,0.015241572609661361,-0.7531329381663937,0.5774425855231473
5.714016664624214,-5.801445402503014,5.457717999815941,0.5099253607911284,-0.2677383398400483,-0.7040266926366711,0.4154981634818648
5.736772273778915,-5.832584749460221,5.499636104106903,0.6302023407569777,-0.5114014049356346,-0.5515403044358089,0.19265748186130846
5.773899169564247,-5.8649210214614875,5.555926079750061,0.6580166173834086,-0.6799955319646865,-0.3181174374828221,-0.058493621231060174
5.820607897639275,-5.800247892737389,5.547542341947556,0.586260125865581,-0.7492643414837286,-0.031155144047714762,-0.30648224809994074
5.817014783620834,-5.796654778718949,5.510414861440659,0.4290494063119176,-0.7056061688575969,0.2539930664363218,-0.5035117313586345
5.7882710409164435,-5.779887887835503,5.527182337045669,0.20884427616726628,-0.5583798339692557,0.5019265458582962,-0.6266304907131447
5.72479542195797,-5.878095383048058,5.569100441336632,-0.04190157111226829,-0.32910419530526236,0.6762315840517084,-0.6577579582959956
5.743957917094231,-5.924804111123085,5.53077545106411,-0.2864629054863755,-0.05164450078913951,0.7512319152588867,-0.5923870852871536
5.802642912268639,-5.892467254400254,5.402626118659973,-0.4890650541788781,0.2333752080690157,0.7160429999917285,-0.44003841559868395
5.791864154934883,-5.941571002006531,5.3451386332511905,-0.6198363333316462,0.48419046629906165,0.5758167532370376,-0.22315371141577292
5.729586045742035,-5.900850992202759,5.474485475420952,-0.6592999733984267,0.6673194207703995,0.34488687114085204,0.032578855937026606
5.7343766695261005,-5.778689793348312,5.552332965731621,-0.6000281188386388,0.747091558160858,0.06787668408467327,0.27787266163733204
5.799050382971764,-5.7846785116195685,5.511612955927849,-0.4526256320742955,0.7172667976838115,-0.21900409449820898,0.48238530732472995
5.791864154934883,-5.873304759263992,5.527182337045669,-0.2387804198684474,0.5821556944282554,-0.47378512397426464,0.616121996712416
5.761922902464867,-5.921210997104645,5.540356698632241,0.010101596918941433,0.36156839469182395,-0.6590442122827433,0.6594141187116659
5.761922902464867,-5.946361625790597,5.499636104106903,0.2574518048320908,0.08799074670179897,-0.7475294538729118,0.6059504206418418
5.767911036014557,-5.885281611084938,5.455322980284691,0.4712565151215016,-0.20524753229344395,-0.7245927907585687,0.4590817302220799
5.758329788446427,-5.851747244596481,5.425381727814675,0.6104055010694924,-0.4614158245272984,-0.5943947995084701,0.2473770067269408
5.754736674427987,-5.851747244596481,5.491252366304398,0.6599776923573508,-0.6498757776779545,-0.3769489628831588,-0.0006313156507514851
5.760725392699242,-5.8996534824371345,5.499636104106903,0.612629670610688,-0.7429933773400107,-0.10419205892303321,-0.24857542672940064
5.787073531150818,-5.873304759263992,5.484066722989082,0.4753062373333278,-0.7270980991215852,0.18375107438345759,-0.4600520380008512
5.8182128781080245,-5.879292892813683,5.464904227852822,0.26814455097198153,-0.6045154401484556,0.4447284689179911,-0.604049808658204
5.827794125676156,-5.939175982475281,5.504426727890968,0.02162178763813291,-0.39313262187456505,0.6404276406547718,-0.6594176802321303
5.742760407328606,-5.92001348733902,5.593053560256958,-0.23370392853063293,-0.11715757218328142,0.7433551623864006,-0.6156944693782427
5.751144145131112,-5.878095383048058,5.566704837083817,-0.4486876369076418,0.17005871012513488,0.7334010504522275,-0.48154162726848526
5.752341654896736,-5.917617883086205,5.512810465693474,-0.5977459113160835,0.43232150037893574,0.6158071920479783,-0.27672991894082405
5.7571322786808015,-5.905641615986824,5.490054856538773,-0.6590699208325024,0.6311470510409517,0.407801554229214,-0.03127509847125973
5.753539164662361,-5.886479120850563,5.42897425711155,-0.6236368950773746,0.7373021170505388,0.14002260424278243,0.2187607862303349
5.767911036014557,-5.790666645169258,5.384661133289337,-0.49664914210727357,0.7352613747910295,-0.14819592118929212,0.43677031644489256
5.767911036014557,-5.704435417056084,5.416997990012169,-0.29674923653774576,0.6253151346840691,-0.41470247833858226,0.590713744049643
5.748748540878296,-5.745155426859856,5.573891065120697,-0.04730993648998695,0.4178219560981873,-0.624419826826854,0.6582449868985859
5.769108545780182,-5.838572883009911,5.661319802999497,0.20355739620029487,0.15281919707456199,-0.7365011366775946,0.6267190400253158
5.805038516521454,-5.906839125752449,5.654133574962616,0.4246055851180864,-0.1346158854294878,-0.7404934884833577,0.5032475076841512
5.830189145207405,-5.845758526325226,5.536763584613801,0.5833039197973194,-0.4022401810144571,-0.6359340454996415,0.3058549716793872
5.817014783620834,-5.843363506793976,5.44574173271656,0.6563392468299291,-0.6109554941461306,-0.4380842571941544,0.06351661862870932
5.767911036014557,-5.881688497066498,5.451729866266251,0.6330153999468433,-0.7300357288708781,-0.1759204433408034,-0.18812585047483177
5.735574179291725,-5.9104322397708895,5.446939242482186,0.5127822131818389,-0.7410802799416304,0.11891325496168148,-0.41679018500966164
5.766713526248932,-5.837375373244286,5.425381727814675,0.3190264705110325,-0.6417112953081906,0.38941815535370283,-0.5786036854947235
5.773899169564247,-5.704435417056084,5.413404875993729,0.07838531733470107,-0.44818652533395287,0.6027594324003235,-0.6554888612233287
5.801445402503014,-5.787073531150818,5.433764880895615,-0.17367805682559853,-0.1888459489288279,0.7276099979761801,-0.6362050227682565
5.782282907366753,-5.994267863631249,5.504426727890968,-0.40021335980408773,0.09829591190529446,0.745603678780523,-0.5236815201302994
5.7954572689533235,-6.000256581902504,5.52358922302723,-0.5680436363883125,0.3709495281977539,0.6541485638939828,-0.33438380798723827
5.820607897639275,-5.9487572300434115,5.464904227852822,-0.6525519998375556,0.5891505400441277,0.4667454299034864,-0.0960532786422678
5.779887887835503,-5.92001348733902,5.433764880895615,-0.6397172097064566,0.7229969370918482,0.20423628020974374,0.162249383380272
5.778689793348312,-5.851747244596481,5.407416742444038,-0.5322644144366003,0.7463998240398578,-0.0826553706993206,0.3908324263572434
5.802642912268639,-5.765516016483307,5.401428608894348,-0.34658703085221804,0.6603606319881903,-0.35744041077860805,0.5621722320673813
5.817014783620834,-5.758329788446427,5.379870509505272,-0.1099341683455461,0.4774614075144126,-0.5798265457762939,0.650957955460766
5.808631630539894,-5.8218054074048995,5.359510504603386,0.14288712598077416,0.22448048794601017,-0.717163421486878,0.6441027919840979
5.778689793348312,-5.73078355550766,5.382266113758088,0.3747911777402011,-0.06152427239399503,-0.7492135815406057,0.5426097550077777
5.787073531150818,-5.808631630539894,5.409811761975289,0.5515400738348479,-0.3385446649884091,-0.6711701715492078,0.3615545015412522
5.7954572689533235,-5.996663467884064,5.466101737618446,0.648371222250241,-0.5704852365616341,-0.48927098709998945,0.12155350346718528
5.840967902541161,-6.11403345823288,5.460113604068757,0.6469484464180081,-0.7122519498406634,-0.23864596700487553,-0.13116009323649752
5.837375373244286,-6.008639734983444,5.4828692132234575,0.5506244922780361,-0.7494172487821649,0.0469402971009455,-0.36466843054945225
5.790666645169258,-5.808631630539894,5.52957735657692,0.37344857988174646,-0.6766183961094359,0.32566565220975435,-0.5446701636783464
5.764317921996117,-5.748748540878296,5.531972960829735,0.1413747229985943,-0.5045329959640813,0.5566660796304158,-0.6446569005831572
5.766713526248932,-5.8601303976774215,5.479276099205017,-0.11146288332125398,-0.2584288708665049,0.7059575894435676,-0.6499341707060825
5.72240040242672,-5.9331878489255905,5.514007975459099,-0.34793093533385566,0.025676166441577216,0.7516085447773185,-0.5597940640381016
5.703237907290459,-5.793061664700509,5.552332965731621,-0.5367491796061077,0.3123678538688535,0.6841742934716065,-0.3824031618778341
5.751144145131112,-5.766713526248932,5.54275171816349,-0.6417695320168761,0.5461289913532379,0.5164234071360886,-0.15225589361429795
5.777492283582688,-5.850549150109291,5.561914213299752,-0.6526644154668315,0.6996875324671495,0.27281531377127266,0.10019142810267091
5.8110266500711445,-5.983489106297493,5.552332965731621,-0.5677897799218821,0.7505481666111359,-0.010751775217980866,0.337900302963145
5.839770392775536,-5.952350344061852,5.499636104106903,-0.399484635155851,0.6913388384558312,-0.29271307643049754,0.5261004577108181
5.8182128781080245,-5.778689793348312,5.460113604068757,-0.17247669728517265,0.530744681968115,-0.5317196351613447,0.6370526673988972
5.778689793348312,-5.754736674427987,5.498438594341279,0.08587242660414524,0.2858687638406824,-0.6955662963755918,0.6535231469165101
5.763120412230492,-5.862526001930237,5.52957735657692,0.32574158353840155,0.003944761984124981,-0.7522814146099782,0.5726687810935684
5.803841006755829,-5.92001348733902,5.476880494952202,0.5178184480157463,-0.2784800513819461,-0.698606487160205,0.40775224337157345
5.800247892737389,-5.8230035018920905,5.415800480246544,0.6339202417007037,-0.5200501593230609,-0.5424275307361136,0.18293532422608602
5.7954572689533235,-5.779887887835503,5.4062192326784135,0.656960832705409,-0.6853338947853287,-0.3065870048874406,-0.0687337281364563
5.782282907366753,-5.824201011657715,5.457717999815941,0.5836522656619614,-0.7499700884173217,-0.02575802278416241,-0.31021190101159024
5.794259759187699,-5.976303462982178,5.52957735657692,0.4247795679549729,-0.7045121256167882,0.25886836880343,-0.5061740324630972
5.82539852142334,-5.9331878489255905,5.517601089477539,0.1976907310866998,-0.5511307876953913,0.510653212644374,-0.6296082322465641
5.858932887911797,-5.848154130578042,5.412207366228104,-0.053722031469514216,-0.31933417948994186,0.6808490760144966,-0.6569506532719792
5.8230035018920905,-5.82539852142334,5.3678942424058915,-0.2973076936097531,-0.04059001344735393,0.7512262900202723,-0.587894248407969
5.7499460506439215,-5.903246011734009,5.393044871091843,-0.4971773642614567,0.244156629740623,0.7113816764161954,-0.43259486714362955
5.761922902464867,-5.8601303976774215,5.412207366228104,-0.6241039129887983,0.4930846167916402,0.5671749794811486,-0.21371572035316103
5.805038516521454,-5.770306640267372,5.43017235159874,-0.6594233586421813,0.6696307733830965,0.3397311308126104,0.03658169176249717
5.805038516521454,-5.716411684155465,5.466101737618446,-0.597923220043548,0.7478904138576464,0.06239453711926446,0.28152206579638833
5.803841006755829,-5.745155426859856,5.492450460791588,-0.44405450741451336,0.7143678556487916,-0.2307688707770336,0.4891215488412814
5.842165997028351,-5.915222863554955,5.4828692132234575,-0.22771396078159875,0.5753043974702313,-0.483014113861977,0.6195712776805424
5.8230035018920905,-5.976303462982178,5.490054856538773,0.02198477260163822,0.3517745410427398,-0.6643443656795545,0.6591038657432183
5.775097264051437,-5.943966606259346,5.512810465693474,0.26838609373230565,0.07657014520666772,-0.748168164793323,0.6019554092654495
5.778689793348312,-5.837375373244286,5.506822332143784,0.47542079201802256,-0.2098520350408308,-0.7221939399485455,0.4564790323856887
5.778689793348312,-5.83497976899147,5.474485475420952,0.6126803729529123,-0.465524433050256,-0.5902471517087776,0.24396324053265328
5.808631630539894,-5.8230035018920905,5.43855550467968,0.6597626584768675,-0.6563837904867845,-0.36573495238383796,-0.010559293088512242
5.801445402503014,-5.830189145207405,5.442148618698121,0.6078675914491946,-0.7453483256257243,-0.09186994922378981,-0.2579007118685455
5.7846785116195685,-5.807433536052704,5.433764880895615,0.4666507332954246,-0.7249473471379169,0.19554189219827756,-0.46738828118391723
5.789469135403634,-5.8613284921646125,5.456520490050316,0.25698137559493067,-0.5980889861484986,0.45423630368101536,-0.6082100933587067
5.806236026287079,-5.8984553879499435,5.493647970557213,0.00963500683584389,-0.3834348848133958,0.646192181424253,-0.6597882390718831
5.82899163544178,-5.870909739732743,5.470892361402512,-0.23914638974799035,-0.1124989880067624,0.7432634620071606,-0.6145831172535465
5.8230035018920905,-5.91642037332058,5.458916094303131,-0.4527873646156855,0.17487570455181783,0.731215767141871,-0.4792969771290162
5.805038516521454,-5.959535987377167,5.4828692132234575,-0.6024202677262803,0.44235697189163103,0.6079189153913028,-0.2680386590791064
5.785876021385193,-5.930792244672776,5.491252366304398,-0.6593564285338918,0.6381003388958417,0.39700198972042966,-0.021598097371359953
5.776294773817063,-5.806236026287079,5.43616048514843,-0.6193850634526195,0.7402600047634762,0.1278931498123635,0.22808027260253183
5.770306640267372,-5.767911036014557,5.4062192326784135,-0.4883959523168887,0.7338070766946624,-0.1600569017226239,0.44427283977784143
5.759527298212052,-5.886479120850563,5.427776747345924,-0.2856980550143048,0.6195601794777362,-0.42457485019646835,0.5951957677497421
5.771504150032998,-5.8649210214614875,5.456520490050316,-0.0410978718935971,0.414352416330678,-0.6266502727994553,0.6587355126354691
5.81581727385521,-5.896060368418694,5.425381727814675,0.20950274169006577,0.1482853591411074,-0.7366674542272889,0.6256525516379069
5.824201011657715,-6.003849111199379,5.43017235159874,0.4338282872598069,-0.1463863676949571,-0.7372859001109365,0.4967630723231201
5.812224159836769,-5.963129101395607,5.503229218125344,0.5889131864817919,-0.41260235394441025,-0.6282207201216132,0.2971182981865567
5.837375373244286,-5.8613284921646125,5.516403579711914,0.6576384420016345,-0.6182859051176177,-0.42701179529758143,0.0538065591846146
5.8337822592258455,-5.790666645169258,5.467299247384072,0.629789302793876,-0.7333078500621351,-0.16320444902160144,-0.19745718255664513
5.782282907366753,-5.7954572689533235,5.487659837007523,0.5094193185340352,-0.7407873222292974,0.12463571046091325,-0.4197523565229499
5.7571322786808015,-5.82539852142334,5.512810465693474,0.31415614061849123,-0.6395948442942803,0.3942267543528551,-0.5803530137909887
5.803841006755829,-5.827794125676156,5.454125470519066,0.07267133181844802,-0.44455585099756906,0.6059291988258814,-0.6556971701065865
5.796654778718949,-5.850549150109291,5.416997990012169,-0.18530841369241507,-0.17749856601587094,0.7304526645310088,-0.6329249211057026
5.791864154934883,-5.790666645169258,5.434962975382805,-0.4100650202027673,0.10999761390687593,0.7434465200489304,-0.5167537866025107
5.793061664700509,-5.915222863554955,5.416997990012169,-0.5745822115271704,0.381375933611696,0.6472161326669295,-0.32483681606926385
5.777492283582688,-6.0146284532547,5.496042990088463,-0.6548498319914485,0.5966607375070269,0.4559342595888709,-0.08539094092168374
5.806236026287079,-5.92360660135746,5.498438594341279,-0.6390707280343754,0.7243550775013075,0.19783087907104888,0.16661713463405922
5.844561016559601,-5.873304759263992,5.421788613796235,-0.5294695979034018,0.7458398778195877,-0.08927944111053916,0.39422582734400125
5.843363506793976,-5.806236026287079,5.401428608894348,-0.3368003752830653,0.6546439100413605,-0.36942095512446266,0.5670405771811002
5.7954572689533235,-5.805038516521454,5.391847361326218,-0.09842919521007618,0.46815612734868706,-0.5884036995537079,0.6518608903038182
5.7727016597986225,-5.843363506793976,5.446939242482186,0.15439425062699183,0.2128871780589842,-0.7210592465868944,0.6410265421204899
5.799050382971764,-5.843363506793976,5.468497341871262,0.3845407629899382,-0.07354798101238577,-0.7478720477939429,0.5361030649199948
5.838572883009911,-5.736772273778915,5.472089871168137,0.5583127771482005,-0.34919694281432245,-0.6649308841710245,0.3524418494982317
5.842165997028351,-5.781085397601128,5.494845480322838,0.6501163884102719,-0.5736339130909613,-0.48433196871019835,0.11711259265185509
5.832584749460221,-5.963129101395607,5.508019841909409,0.6465376002519719,-0.7138342838637581,-0.23266494213113392,-0.13526555860326367
5.843363506793976,-6.001454091668129,5.451729866266251,0.544500289789497,-0.7489190080194331,0.06003431213605536,-0.37287482512592995
5.8182128781080245,-5.896060368418694,5.3942423808574675,0.3638754783872279,-0.671874582548018,0.3372670410961912,-0.549936473189961
5.760725392699242,-5.7834804171323775,5.433764880895615,0.12988461135485824,-0.49621112535704376,0.5650452789367608,-0.6462417036654102
5.747551031112671,-5.770306640267372,5.516403579711914,-0.12314275195339593,-0.24766308648908433,0.7099036740523501,-0.64771570291218
5.770306640267372,-5.846956620812416,5.543949227929115,-0.3580773143045863,0.03722349521329426,0.7505572371759098,-0.5541289399655872
5.799050382971764,-5.862526001930237,5.52957735657692,-0.5404755459482575,0.3166136733639401,0.6810638291319,-0.37920182847544304
5.803841006755829,-5.8265960311889655,5.525984827280045,-0.6435462721442223,0.5495412850954141,0.5116269500217265,-0.14862851542157338
5.8493516403436665,-5.837375373244286,5.479276099205017,-0.6510344760496818,0.7043752688430123,0.2606952495136915,0.10976146189826635
5.844561016559601,-5.903246011734009,5.42897425711155,-0.5618109288195836,0.7509984020189235,-0.02335204259363294,0.346156846719237
5.796654778718949,-5.911629749536514,5.469694851636887,-0.3901827254577499,0.6874198771256558,-0.30401533212678883,0.5317762980039151
5.773899169564247,-5.868514135479927,5.491252366304398,-0.16129189998107746,0.5230431047698494,-0.5400530189742795,0.6393383847775581
5.8337822592258455,-5.782282907366753,5.388254247307778,0.09141942198304599,0.28201112412326146,-0.6968932216336114,0.653032964555501
5.82899163544178,-5.842165997028351,5.390649266839028,0.33067729989574457,-0.0004566730920410239,-0.7514925581011602,0.5708863721459124
5.791864154934883,-5.863723511695862,5.4816711187362674,0.5250055215112245,-0.2894072842369616,-0.6932408241623614,0.40003723067735025
5.803841006755829,-5.775097264051437,5.458916094303131,0.6371467242405439,-0.5287923323807551,-0.5331980693931119,0.17355846219739257
5.842165997028351,-5.8337822592258455,5.377475489974022,0.6557855081467157,-0.6905255392906711,-0.29492551409594536,-0.07835041816942849
5.850549150109291,-5.943966606259346,5.419393009543419,0.5782461778272926,-0.7508858462881696,-0.013307980298208538,-0.3187862941417166
5.845758526325226,-5.92240850687027,5.449334846735001,0.4158561891097058,-0.7010352721697639,0.27020547218520097,-0.5124472460206906
5.82539852142334,-5.896060368418694,5.449334846735001,0.1924842275756447,-0.5483021076648678,0.5140588224051581,-0.6309184955065853
5.785876021385193,-5.8265960311889655,5.498438594341279,-0.0591340322801869,-0.31507205804842586,0.6825165714306565,-0.6568134394072316
5.806236026287079,-5.837375373244286,5.490054856538773,-0.3074167373059092,-0.0286803767296191,0.7512554531859016,-0.5833417777540731
5.838572883009911,-5.832584749460221,5.427776747345924,-0.5046667019127901,0.25553102103976405,0.7067352159323853,-0.4249008729431458
5.843363506793976,-5.862526001930237,5.422986123561859,-0.6278336612969595,0.5022921537231112,0.5584694119354287,-0.20405734974058126
5.817014783620834,-5.805038516521454,5.450532356500626,-0.6588016084319657,0.6753027369350424,0.3282761241853353,0.046705893689662784
5.842165997028351,-5.776294773817063,5.43017235159874,-0.593070807218316,0.7491894391460159,0.049926575453893,0.2906708429838465
5.83497976899147,-5.81581727385521,5.412207366228104,-0.4403005571838381,0.7131041339340044,-0.23574918677015103,0.49197584742246
5.851747244596481,-5.869711645245553,5.393044871091843,-0.22296367547276122,0.5723885287921675,-0.48676437055715255,0.62106281412021
5.820607897639275,-5.8649210214614875,5.431369861364365,0.033181562845812314,0.34150582372936317,-0.6696888769330147,0.6586270297810713
5.820607897639275,-5.808631630539894,5.464904227852822,0.27872295050359847,0.06501615993776756,-0.7489197486016319,0.5976668185234844
5.845758526325226,-5.765516016483307,5.487659837007523,0.4833967655429347,-0.22105653445578716,-0.7182398989524221,0.448991117050038
5.838572883009911,-5.808631630539894,5.498438594341279,0.6170855564373948,-0.47472269813838297,-0.5821437054556169,0.23441945761171024
5.868514135479927,-5.813422254323959,5.448136752247811,0.6601699550114625,-0.6587125618510152,-0.36063790099733106,-0.014618335201911583
5.846956620812416,-5.8230035018920905,5.401428608894348,0.6063295175112645,-0.7460215894900956,-0.08618667216006409,-0.26151130329529165
5.799050382971764,-5.812224159836769,5.424183633327484,0.4635054247778823,-0.7238131285269477,0.20095128153470673,-0.46997431698239234
5.82899163544178,-5.82899163544178,5.409811761975289,0.24699001619471625,-0.5911986972721178,0.4641065115215145,-0.6116250307232488
5.82539852142334,-5.886479120850563,5.414602385759354,-0.001339623702190613,-0.37363699012679846,0.6522968399944258,-0.6594713318640998
5.846956620812416,-5.82899163544178,5.449334846735001,-0.24953191013659634,-0.10127035541131486,0.7447748193551507,-0.6105641730342113
5.850549150109291,-5.710423550605774,5.469694851636887,-0.46114474912083253,0.18601241859910947,0.7279923617765754,-0.47198731093129787
5.842165997028351,-5.760725392699242,5.509217351675034,-0.6050093319379531,0.4460655558021591,0.6043358590404507,-0.2641351882516659
5.843363506793976,-5.891269744634629,5.491252366304398,-0.6600123597589311,0.6406418040170888,0.3919872614073857,-0.017542827751396498
5.845758526325226,-5.961931591629982,5.418195499777794,-0.6158144538919254,0.7424168068914587,0.1152716067658849,0.23728105675862882
5.803841006755829,-5.981094086766244,5.42897425711155,-0.48132855166505994,0.7314397763558412,-0.17241576481046977,0.45121112903091537
5.773899169564247,-5.941571002006531,5.490054856538773,-0.27632069696128847,0.6131303930498437,-0.43472716382848703,0.5989409708635832
5.8337822592258455,-5.807433536052704,5.400230514407158,-0.030593193959511975,0.4049903140080687,-0.633235690743158,0.658831892072657
5.8721072494983675,-5.791864154934883,5.336754895448685,0.21968776215953192,0.13750000440931096,-0.7388882713818796,0.6219928925309951
5.8337822592258455,-5.782282907366753,5.389451757073402,0.43776571794818675,-0.150311723503168,-0.7361891277113205,0.4937541191792336
5.820607897639275,-5.794259759187699,5.462508623600006,0.5915231167230229,-0.41609472448323426,-0.6253790321277993,0.29303011588299127
5.8110266500711445,-5.906839125752449,5.518798599243165,0.6587091182654546,-0.6247696966023647,-0.4170077502858896,0.04323956432294035
5.846956620812416,-5.886479120850563,5.43017235159874,0.6266379994493786,-0.7357874562062139,-0.15129020911680774,-0.2074919505934194
5.867316625714302,-5.937978472709656,5.34154551923275,0.5026491868706437,-0.7387086135820387,0.13665692476383126,-0.4277595867681703
5.789469135403634,-6.003849111199379,5.4445442229509355,0.30510816707082883,-0.6331152471186192,0.4044842220633704,-0.5852064630148911
5.765516016483307,-5.893664764165878,5.560716703534126,0.06280884889590135,-0.4346338807043002,0.6129018662253939,-0.6568863985665417
5.838572883009911,-5.781085397601128,5.548739851713181,-0.18880035367549688,-0.17252186291991575,0.7314100414415712,-0.6321629414518762
5.906839125752449,-5.733179159760476,5.415800480246544,-0.412825231471788,0.11486858259945888,0.7427521432346366,-0.5144898353827896
5.902048501968384,-5.743957917094231,5.372684866189957,-0.5790671139087228,0.39153468804492875,0.6416363748185894,-0.3157287255804281
5.799050382971764,-5.838572883009911,5.391847361326218,-0.6555715582252896,0.6038244166702025,0.4472811968038302,-0.07457571229756095
5.793061664700509,-5.875700363516808,5.402626118659973,-0.6358507300950704,0.7274162202293828,0.18722583428219308,0.17749923538455234
5.817014783620834,-5.8948628586530685,5.407416742444038,-0.5228583769235493,0.7441449103465094,-0.10029064035465775,0.40349629185843816
5.842165997028351,-5.882886006832123,5.419393009543419,-0.3331966648450527,0.6516044638676921,-0.37303646842308413,0.5702941332595529
5.869711645245553,-5.852944754362107,5.4828692132234575,-0.0946790658122271,0.46341038123958095,-0.590960030553108,0.6534928732166708
5.8721072494983675,-5.836177278757096,5.496042990088463,0.16367626347413436,0.20062835707269616,-0.7241800497001772,0.639156943738942
5.902048501968384,-5.758329788446427,5.413404875993729,0.3921657783000715,-0.08607617726873129,-0.7468073334416166,0.5301657295175946
5.863723511695862,-5.779887887835503,5.35112676680088,0.5629942936497367,-0.3602712403333729,-0.6598529725785407,0.34327265152608716
5.807433536052704,-5.813422254323959,5.393044871091843,0.6510733399238481,-0.5816728502393882,-0.47593769673997155,0.10603541934958562
5.766713526248932,-5.881688497066498,5.4062192326784135,0.6435601809310262,-0.7176379074699544,-0.22206503491131194,-0.1466739498070732
5.790666645169258,-5.902048501968384,5.43855550467968,0.5417028186259327,-0.748108701141995,0.0643572746678313,-0.37782213906239837
5.805038516521454,-5.851747244596481,5.503229218125344,0.3604831216034139,-0.6687287904417767,0.34122965842803327,-0.5535485923407487
5.852944754362107,-5.72120230793953,5.5199961090087895,0.12030921857735576,-0.4860863082008132,0.5726059070272462,-0.6491288532660637
5.874502269029618,-5.751144145131112,5.505624237656594,-0.13244889983518432,-0.23531738468965224,0.7136881516866675,-0.646322086530655
5.881688497066498,-5.8218054074048995,5.451729866266251,-0.36582919022218496,0.050016580736520364,0.7501776623130453,-0.5485442736911416
5.846956620812416,-5.8984553879499435,5.448136752247811,-0.5454579147003574,0.32810328320789667,0.6765971967497595,-0.3701893193884765
5.807433536052704,-5.870909739732743,5.4828692132234575,-0.6449361447601539,0.5580434206679871,0.5037101510374985,-0.13755360254410728
5.840967902541161,-5.845758526325226,5.4265792375803,-0.6497397280494188,0.7060875738002353,0.2568707409869476,0.11530848339988256
5.863723511695862,-5.854142264127732,5.381068019270897,-0.5591863960292959,0.7504400571284405,-0.02764780804812062,0.35126328282780256
5.8230035018920905,-5.839770392775536,5.399033004641534,-0.3815396113773426,0.6818538875039475,-0.3144747601416123,0.5390810943444927
5.8230035018920905,-5.8230035018920905,5.402626118659973,-0.15121671563817168,0.513414204337615,-0.5480656030110117,0.6427779200409377
5.848154130578042,-5.8649210214614875,5.418195499777794,0.10125562320378448,0.26961358773890093,-0.7011890849355459,0.6522190423802596
5.83497976899147,-5.876897873282433,5.454125470519066,0.3388742479031606,-0.01377198275189629,-0.751415067779909,0.5659946753393209
5.832584749460221,-5.7954572689533235,5.480473608970643,0.526796933347698,-0.2951195815669026,-0.6913848471537888,0.39670696580394127
5.873304759263992,-5.805038516521454,5.467299247384072,0.6374083503142793,-0.5331541683194936,-0.529945233186723,0.16916050832226753
5.875700363516808,-5.830189145207405,5.454125470519066,0.6534827813307569,-0.6957906341599425,-0.2843525053232861,-0.08932693119039524
5.870909739732743,-5.8613284921646125,5.414602385759354,0.5721484577363294,-0.7513243759142195,-0.0019375468196757288,-0.3288678615787348
5.838572883009911,-5.866119115948678,5.395439890623093,0.4068382049641721,-0.6965449988989182,0.28076508401580325,-0.5200756743859832
5.785876021385193,-5.8265960311889655,5.389451757073402,0.18181939598062177,-0.539500003284649,0.5222680022910238,-0.6349154175825695
5.82539852142334,-5.842165997028351,5.349929257035256,-0.06986551081761358,-0.30331215674819656,0.6870330069496161,-0.6565867751704417
5.82899163544178,-5.949954739809036,5.402626118659973,-0.3113066216745408,-0.022548265470516093,0.7509307766526911,-0.5819645450554882
5.838572883009911,-5.903246011734009,5.516403579711914,-0.5071071357959762,0.26154690834550626,0.7045667132050992,-0.42192572119162397
5.855339773893356,-5.8182128781080245,5.509217351675034,-0.630110615105498,0.5124078937416285,0.5502098147285113,-0.19408225817692873
5.867316625714302,-5.791864154934883,5.461311113834381,-0.6569136530237528,0.6814374482313581,0.3174773526718436,0.057581135447310104
5.82539852142334,-5.789469135403634,5.450532356500626,-0.5872492826749047,0.7504772590586818,0.038145497678556635,0.30077746697589125
5.820607897639275,-5.81581727385521,5.457717999815941,-0.4313790897596609,0.7093662783060998,-0.24681133600610614,0.4997956867952747
5.801445402503014,-5.839770392775536,5.488857346773148,-0.21222175297849477,0.5640991830529564,-0.4955448424224859,0.6254513157634217
5.840967902541161,-5.842165997028351,5.467299247384072,0.03807045511007533,0.33609718010668277,-0.6714824423377287,0.6593183264586288
5.897257878184319,-5.831386654973031,5.365498638153077,0.2828818954067132,0.05881964615750769,-0.7488857762902537,0.596395989714179
5.868514135479927,-5.8265960311889655,5.376277395486832,0.4901671211115923,-0.23378815231595138,-0.7143580462553162,0.44132966699300274
5.802642912268639,-5.8337822592258455,5.456520490050316,0.6200868366487006,-0.4851329232064586,-0.5743219144450751,0.2242603407299379
5.8182128781080245,-5.869711645245553,5.486461742520333,0.6590075422698614,-0.6652459431395719,-0.3499945066860509,-0.02570485668830257
5.846956620812416,-5.858932887911797,5.473287965655327,0.6011814335054979,-0.7477330987365202,-0.07433426952104155,-0.2719384368509334
5.855339773893356,-5.805038516521454,5.461311113834381,0.4550820895624396,-0.7205322398348752,0.2121976766990052,-0.4782318779855291
5.8649210214614875,-5.794259759187699,5.414602385759354,0.24208638779497707,-0.587606924063351,0.46765451009829073,-0.614338296724138
5.863723511695862,-5.830189145207405,5.397835494875908,-0.006435178372731347,-0.3684285966421538,0.6544280207229132,-0.6602597393058998
5.845758526325226,-5.796654778718949,5.379870509505272,-0.259597160778269,-0.08826279177567624,0.7461118340818463,-0.6067422226504834
5.83497976899147,-5.8182128781080245,5.336754895448685,-0.46860906759942483,0.19877654432049013,0.7247152371515455,-0.4644149569425829
5.842165997028351,-5.911629749536514,5.366696147918701,-0.608855408458285,0.4565966591463532,0.5968922201608526,-0.2540359422580435
5.842165997028351,-5.9104322397708895,5.427776747345924,-0.6597949935906979,0.6474224401044659,0.38141090102272635,-0.006362001482417811
5.82899163544178,-5.8649210214614875,5.498438594341279,-0.6139152820127817,0.7432104559858399,0.10996729447302964,0.24218472034950664
5.863723511695862,-5.791864154934883,5.511612955927849,-0.4779293750349546,0.729960965077237,-0.17752863151696513,0.4552187242786923
5.878095383048058,-5.808631630539894,5.457717999815941,-0.26610496843186765,0.6056568668787824,-0.44471565228177434,0.6038177655502093
5.862526001930237,-5.8265960311889655,5.474485475420952,-0.019470248962146903,0.3940914690864109,-0.639786024433118,0.6595351896136643
5.844561016559601,-5.814619764089585,5.442148618698121,0.2300802974108048,0.12466104641908238,-0.7410265989558671,0.6183868205977191
5.8493516403436665,-5.820607897639275,5.377475489974022,0.4458453662021756,-0.16307237769125627,-0.7334913026517936,0.48643583133270835
5.8337822592258455,-5.851747244596481,5.349929257035256,0.596132813807349,-0.4268628053106994,-0.6182557333268656,0.2831495399128739
5.799050382971764,-5.888874140381813,5.409811761975289,0.6589484766240903,-0.6280004339639348,-0.4122260781051105,0.03836692098643904
5.827794125676156,-5.870909739732743,5.43017235159874,0.6250847507904509,-0.7369211233414732,-0.14572322205097785,-0.21208737552589657
5.8649210214614875,-5.846956620812416,5.4062192326784135,0.49534391064840255,-0.7364912437024509,0.14894491045596228,-0.4359248464843797
5.870909739732743,-5.870909739732743,5.440951108932495,0.2949890276067453,-0.6265250017733596,0.4149084799394723,-0.590168492058696
5.832584749460221,-5.873304759263992,5.504426727890968,0.051378659977853576,-0.4246043270969034,0.6199822434753758,-0.6577943572916279
5.850549150109291,-5.760725392699242,5.511612955927849,-0.1998232860026636,-0.16039372650937184,0.7340726701542933,-0.6288734545201287
5.844561016559601,-5.781085397601128,5.463706718087197,-0.4216759298691412,0.12739675030460104,0.7404449150809511,-0.5076423996393379
5.850549150109291,-5.839770392775536,5.451729866266251,-0.5816351429784822,0.3964489573840876,0.6381672899983815,-0.3118834631999465
5.8721072494983675,-5.8984553879499435,5.405021138191223,-0.656224317468695,0.6073260968795775,0.44224671005871286,-0.07030294911316504
5.851747244596481,-5.9487572300434115,5.409811761975289,-0.6326689159550213,0.7308332364970147,0.1746723214636498,0.1873563538556835
5.801445402503014,-5.930792244672776,5.468497341871262,-0.5158466061470468,0.7428665104649124,-0.11290832523088624,0.4114648668474798
5.8230035018920905,-5.8984553879499435,5.460113604068757,-0.3233455397710922,0.6459072784686796,-0.3838761124920963,0.5752308925894715
5.850549150109291,-5.817014783620834,5.434962975382805,-0.08336354065997673,0.4542424689121497,-0.5984861864334311,0.6546209469407434
5.851747244596481,-5.782282907366753,5.414602385759354,0.16889673445588738,0.19591653317015945,-0.7253345239976794,0.6379501809842075
5.82899163544178,-5.844561016559601,5.437357994914056,0.39633821945600356,-0.09113936012290023,-0.7457551266896253,0.5276920729468787
5.81581727385521,-5.8721072494983675,5.503229218125344,0.5686517349518116,-0.3709570462052319,-0.6534773697842395,0.3346541519044046
5.843363506793976,-5.8182128781080245,5.466101737618446,0.6527816086435514,-0.5893600609466895,-0.4661447724711421,0.09612461222537623
5.873304759263992,-5.838572883009911,5.401428608894348,0.6410517708890608,-0.7213011402378594,-0.21039640957051353,-0.1565587524586209
5.873304759263992,-5.886479120850563,5.372684866189957,0.5351994076950549,-0.747371917493683,0.07623867746577574,-0.38624406144683593
5.8218054074048995,-5.884083516597748,5.387056737542153,0.3507743844188925,-0.6637044678303519,0.35176337450659756,-0.5592103709457719
5.8182128781080245,-5.906839125752449,5.389451757073402,0.11495178646586138,-0.48262773721167096,0.5755713436170062,-0.6500570609332408
5.850549150109291,-5.885281611084938,5.376277395486832,-0.13778500410446906,-0.2307317729336261,0.7148637850221137,-0.645560152477439
5.876897873282433,-5.8337822592258455,5.371486771702767,-0.37527745299247894,0.061915489682617036,0.7488006221109165,-0.5427991651975378
5.906839125752449,-5.7882710409164435,5.403823628425599,-0.5518879283732382,0.33872130447746646,0.6706371294415621,-0.3618472509545437
5.928397225141525,-5.794259759187699,5.378672999739647,-0.6475889611138973,0.5658727821700551,0.49406542827568284,-0.1277336464104524
5.897257878184319,-5.7834804171323775,5.393044871091843,-0.6482360190870625,0.7100114037801123,0.24495995884344945,0.1251738336225563
5.885281611084938,-5.72479542195797,5.388254247307778,-0.5536664759879748,0.7499762821641118,-0.040079936642354874,0.3596979402736393
5.873304759263992,-5.773899169564247,5.377475489974022,-0.3777921987125076,0.6798648046089878,-0.31931172899223786,0.5413842644314109
5.879292892813683,-5.812224159836769,5.3942423808574675,-0.14647859053680068,0.5099353692366312,-0.5516340626650662,0.6435913319984095
5.8493516403436665,-5.808631630539894,5.415800480246544,0.11233358042428405,0.2586244334874292,-0.7055343362675479,0.6501660322255217
5.8218054074048995,-5.802642912268639,5.43616048514843,0.3487205862418433,-0.025578896016694785,-0.7510094173707854,0.5601111745270805
5.838572883009911,-5.791864154934883,5.456520490050316,0.5338815406177945,-0.30599766714681226,-0.6862100305593204,0.38788106714308124
5.857735378146172,-5.8565378683805465,5.437357994914056,0.6406765558613359,-0.5415112954033285,-0.5206702334045364,0.15875004178497548
5.866119115948678,-5.854142264127732,5.431369861364365,0.653446366317402,-0.6975383651730085,-0.27868547608867433,-0.09371489142916059
5.850549150109291,-5.820607897639275,5.463706718087197,0.5703554736824554,-0.7511348111640453,0.004185708230380546,-0.33237570450414394
5.8565378683805465,-5.765516016483307,5.457717999815941,0.4035595166823994,-0.6944940871102995,0.2864373104529109,-0.5222751637254088
5.858932887911797,-5.8182128781080245,5.452927376031876,0.17166754811632107,-0.5311260287818419,0.5316649739864387,-0.6369990187670308
5.8613284921646125,-5.836177278757096,5.52358922302723,-0.08059360917155245,-0.29244783829786386,0.6923189236379129,-0.6547315785941987
5.902048501968384,-5.767911036014557,5.475682985186577,-0.321126155146304,-0.010910708190193222,0.7514468843603486,-0.576269493304014
5.940373492240906,-5.785876021385193,5.379870509505272,-0.514488576716076,0.2721989744901459,0.7003557070654389,-0.41317200570228413
5.857735378146172,-5.836177278757096,5.396637985110283,-0.6322920813531965,0.5154852781578565,0.5464289097701827,-0.18946529610440419
5.7954572689533235,-5.879292892813683,5.468497341871262,-0.6572986804653885,0.6830994448826275,0.31224474137256936,0.06194202567467901
5.7846785116195685,-5.813422254323959,5.509217351675034,-0.5829165500663309,0.7508175869655017,0.025351367554978174,0.30957802720018773
5.888874140381813,-5.778689793348312,5.4445442229509355,-0.42366808973992415,0.7054013067304844,-0.2588038762158024,0.5059000888067962
5.9260016208887105,-5.851747244596481,5.379870509505272,-0.20224708408380826,0.5565016890403959,-0.5049820564724952,0.628008845252671
5.869711645245553,-5.8649210214614875,5.418195499777794,0.048859258308893504,0.32589379658584344,-0.6770958451005653,0.6579872512229406
5.8337822592258455,-5.794259759187699,5.433764880895615,0.29277270049956794,0.047463974254149784,-0.7498617516677238,0.5913870732236247
5.8601303976774215,-5.830189145207405,5.400230514407158,0.49371665003225157,-0.23792780592187276,-0.7126088039491527,0.43797593676398805
5.874502269029618,-5.813422254323959,5.409811761975289,0.6222260560212021,-0.48839762538795456,-0.5707894532342485,0.22023145733581087
5.874502269029618,-5.778689793348312,5.393044871091843,0.6589085256527626,-0.6704873235897852,-0.33910392669241296,-0.03598375507498009
5.880490987300873,-5.779887887835503,5.401428608894348,0.5970027281725628,-0.748763302133173,-0.062175834695458225,-0.2812035304064777
5.880490987300873,-5.775097264051437,5.378672999739647,0.4474303981069026,-0.7171601590050011,0.2238947878465807,-0.48513757756017517
5.893664764165878,-5.882886006832123,5.325976138114929,0.23222468295366996,-0.5802456016079683,0.4771413700773643,-0.6178372369826621
5.844561016559601,-5.934385358691216,5.3834636235237125,-0.016976280180301007,-0.35804826110630106,0.6603267209334651,-0.6599105016979588
5.800247892737389,-5.945164116024971,5.499636104106903,-0.2635754907020286,-0.08326882755672943,0.7465001839125524,-0.6052534497853258
5.850549150109291,-5.850549150109291,5.536763584613801,-0.47155864897153543,0.2035886596542835,0.7231173938127236,-0.46182825054971127
5.9319897544384,-5.728388535976411,5.478078589439392,-0.6125975347805069,0.46610052128554175,0.5895471665848164,-0.24476254372351666
5.928397225141525,-5.763120412230492,5.399033004641534,-0.6595323091974813,0.6535486585075088,0.37131628428975993,0.003937144767462843
5.848154130578042,-5.8613284921646125,5.443346128463745,-0.6095843410568652,0.7451197025616055,0.09852817808877706,0.2519836465234958
5.801445402503014,-5.8876766306161885,5.485264232754708,-0.4701296973263864,0.7273134570807775,-0.18875998210869602,0.46299338223708236
5.838572883009911,-5.81581727385521,5.43855550467968,-0.2616957180988886,0.6027731421341104,-0.4482386202891635,0.6060214761307933
5.8493516403436665,-5.80982914030552,5.379870509505272,-0.01483953929557325,0.3897223768306715,-0.6419477458960701,0.6601510043996767
5.842165997028351,-5.791864154934883,5.42897425711155,0.23981737810293013,0.1126269237947924,-0.7425703319565968,0.6151358413344389
5.857735378146172,-5.81581727385521,5.448136752247811,0.45327444650027965,-0.17493435271695468,-0.7305007381188561,0.4799051156188814
5.91642037332058,-5.867316625714302,5.431369861364365,0.6002669832912239,-0.4368345964493097,-0.611273517211942,0.2742257669708741
5.909234730005265,-5.8601303976774215,5.419393009543419,0.6591743182852597,-0.6346674515316771,-0.4023514062690041,0.02828055785878668
5.876897873282433,-5.747551031112671,5.424183633327484,0.621307691521709,-0.7393969540796648,-0.1343727752094394,-0.2218397034712059
5.848154130578042,-5.699644793272019,5.4445442229509355,0.49222954445171974,-0.7356334229638761,0.15336371751835692,-0.4393553376667377
5.8721072494983675,-5.758329788446427,5.409811761975289,0.2908982928721795,-0.6239305726385767,0.41856408063865674,-0.5923621646679214
5.902048501968384,-5.807433536052704,5.348731747269631,0.04071582115058677,-0.4149515933281581,0.6263018856237497,-0.6587134013868186
5.8649210214614875,-5.801445402503014,5.358312994837761,-0.20995534599857318,-0.14888147756909853,0.7362258905298077,-0.6258789790662834
5.850549150109291,-5.778689793348312,5.412207366228104,-0.4297524820375426,0.13902293565383328,0.7380512579584552,-0.5012641700448014
5.900850992202759,-5.7846785116195685,5.393044871091843,-0.5865343930791082,0.40650663623013983,0.6315657031409883,-0.3030751112384652
5.92240850687027,-5.8613284921646125,5.384661133289337,-0.6572654222774341,0.6143318391779521,0.4323748035996843,-0.06042007334351297
5.880490987300873,-5.874502269029618,5.43616048514843,-0.6315457812127337,0.7320200790736248,0.16970430290988214,0.19104182693670319
5.831386654973031,-5.808631630539894,5.4816711187362674,-0.513126131692499,0.7423020555270752,-0.11795538590765,0.4144583914821228
5.844561016559601,-5.771504150032998,5.479276099205017,-0.31395831957454234,0.6401565126571123,-0.39425614794306046,0.5798205780081572
5.892467254400254,-5.747551031112671,5.401428608894348,-0.07246972697322393,0.4451596784105493,-0.6057304208127499,0.6554934451936585
5.892467254400254,-5.74036480307579,5.382266113758088,0.17969624793952826,0.18480950692464837,-0.7283217945776581,0.6349031959046224
5.880490987300873,-5.805038516521454,5.385858643054963,0.40538865012166864,-0.10265901604822478,-0.7440010251285455,0.5211368758629685
5.855339773893356,-5.92240850687027,5.431369861364365,0.571581918635627,-0.37513501667255367,-0.6504131170205866,0.33095408558055783
5.850549150109291,-5.903246011734009,5.415800480246544,0.6539037075010448,-0.5924951891894376,-0.46136121865160495,0.092223738961651
5.870909739732743,-5.8265960311889655,5.346336143016815,0.6402979002287265,-0.7228543281101361,-0.20466807820869548,-0.16003498697936916
5.839770392775536,-5.842165997028351,5.389451757073402,0.5290615072098437,-0.7464804803881379,0.08902777915714333,-0.39361766795545433
5.869711645245553,-5.918815977573395,5.433764880895615,0.3417844144535955,-0.6585849462352728,0.36289769073905254,-0.5636972136574374
5.9044441062212,-5.908036635518075,5.422986123561859,0.10423053085415736,-0.4740787161854247,0.5835323350207638,-0.6510571259751752
5.842165997028351,-5.8265960311889655,5.43616048514843,-0.1486489932073063,-0.21993868204836087,0.7186216165575297,-0.6427390023746241
5.81581727385521,-5.831386654973031,5.476880494952202,-0.3796419419670125,0.0665128365757924,0.7482324677745692,-0.5399964931720723
5.82539852142334,-5.8182128781080245,5.474485475420952,-0.5549132841893571,0.34314447752367766,0.6679840705543992,-0.3579390954628447
5.845758526325226,-5.858932887911797,5.452927376031876,-0.6496882502376456,0.5739903506305085,0.4844416129415942,-0.11728844161620848
5.880490987300873,-5.91642037332058,5.42897425711155,-0.6460145712551398,0.7141923309093965,0.2329456359383344,0.1353913545745291
5.876897873282433,-5.9870822203159335,5.407416742444038,-0.5476213745762987,0.7495077919802177,-0.05273904701621263,0.36819491140960336
5.850549150109291,-5.994267863631249,5.389451757073402,-0.36894572934467884,0.6748308154293502,-0.33061627587028575,0.546969192436781
5.8218054074048995,-5.817014783620834,5.397835494875908,-0.1360745721568248,0.5011790967081987,-0.5600060794044637,0.6455202668120751
5.824201011657715,-5.723597912192345,5.431369861364365,0.11683445877249346,0.25398402772130835,-0.7072847308985032,0.6492997245830557
5.869711645245553,-5.753539164662361,5.475682985186577,0.3526168457184072,-0.030419697912326654,-0.7507897597483106,0.5577192293184788
5.890072234869003,-5.8265960311889655,5.478078589439392,0.5400637382531822,-0.31677973236996726,-0.6813548200094883,0.3791271146112448
5.896060368418694,-5.844561016559601,5.427776747345924,0.6431850723762753,-0.5496191921017773,-0.5121322220688751,0.14816306376594546
5.8565378683805465,-5.8337822592258455,5.388254247307778,0.651876378184385,-0.7017785779802398,-0.2676704775534885,-0.10448220183135812
5.817014783620834,-5.83497976899147,5.381068019270897,0.5649306054100882,-0.7508616282648151,0.016117607820929254,-0.3417608066888778
5.81581727385521,-5.791864154934883,5.401428608894348,0.39517477072450646,-0.6896685943548733,0.2974372499948589,-0.5288905490353395
5.863723511695862,-5.7499460506439215,5.422986123561859,0.16740142327541754,-0.527261571527701,0.5350643562123075,-0.6384967763322006
5.880490987300873,-5.802642912268639,5.461311113834381,-0.08495923665152308,-0.287476443044602,0.6941935843178243,-0.6543962792482746
5.909234730005265,-5.842165997028351,5.461311113834381,-0.3300973751409832,0.00143188796000819,0.7516487787669863,-0.5710146985848974
5.888874140381813,-5.854142264127732,5.452927376031876,-0.5208010687543101,0.2837456174382766,0.6960382480285451,-0.4047041248249059
5.8265960311889655,-5.808631630539894,5.452927376031876,-0.6349818308760218,0.5244621202217645,0.5382313896413188,-0.17900986038372738
5.805038516521454,-5.838572883009911,5.431369861364365,-0.6559390811817671,0.6881663579061809,0.3014306925632154,0.07287333672490706
5.845758526325226,-5.854142264127732,5.4062192326784135,-0.5806522385185744,0.7508354803490249,0.02045847108566941,0.3141186245883147
5.8601303976774215,-5.832584749460221,5.396637985110283,-0.4201609595359728,0.7033180170908854,-0.2634861533897126,0.5092971449841915
5.876897873282433,-5.8182128781080245,5.407416742444038,-0.19213971778483568,0.5479483685096438,-0.5139405206998905,0.631426999327641
5.882886006832123,-5.8218054074048995,5.440951108932495,0.05931735106216221,0.31454891324137424,-0.6823296624534252,0.6572417095542809
5.858932887911797,-5.866119115948678,5.4445442229509355,0.30200251184475013,0.035010556749431446,-0.7506123594189585,0.5866428467500991
5.858932887911797,-5.868514135479927,5.422986123561859,0.5004324902163361,-0.24973104839958823,-0.7087889894360487,0.4299068441596903
5.82539852142334,-5.8265960311889655,5.451729866266251,0.6253869556322352,-0.4978400188939929,-0.5629563948159572,0.21006324963804043
5.858932887911797,-5.824201011657715,5.440951108932495,0.6584873018969829,-0.6729118043511825,-0.33456276930244894,-0.0406439442222809
5.884083516597748,-5.8182128781080245,5.413404875993729,0.594899598811577,-0.7492333105269713,-0.057068318514969386,-0.2854594905630109
5.8649210214614875,-5.796654778718949,5.405021138191223,0.439348422230421,-0.7135293962668912,0.23544753701484625,-0.49235477235453723
5.8337822592258455,-5.789469135403634,5.397835494875908,0.22209203921163856,-0.5724443968028324,0.48639069492116094,-0.6216161440808688
5.832584749460221,-5.845758526325226,5.407416742444038,-0.027656748778100072,-0.347302047982219,0.6658999892737768,-0.6596920463364446
5.850549150109291,-5.8948628586530685,5.415800480246544,-0.2733315269316449,-0.0712663541706769,0.7476419915620145,-0.6010344712257524
5.892467254400254,-5.8649210214614875,5.384661133289337,-0.47898018697649486,0.21520869585525831,0.7197240045717822,-0.45415917358939056
5.900850992202759,-5.878095383048058,5.385858643054963,-0.6143275505339671,0.47017160103910005,0.5862164503096925,-0.24060465418933458
5.874502269029618,-5.83497976899147,5.43017235159874,-0.6594767458614456,0.6561837085027616,0.3666664299748264,0.008312129274555257
5.8493516403436665,-5.790666645169258,5.44574173271656,-0.6052225931730886,0.7468687423710989,0.08641691653777625,0.26158136576973184
5.848154130578042,-5.8265960311889655,5.396637985110283,-0.4623320122967927,0.724440697032431,-0.20039188949731848,0.47040182558367943
5.827794125676156,-5.92001348733902,5.4445442229509355,-0.2516522710283676,0.595630587266538,-0.45780643906787516,0.6101709615728825
5.82539852142334,-5.8984553879499435,5.463706718087197,-0.004039352672018017,0.3793851352813831,-0.6479995110010732,0.6604144429825016
5.868514135479927,-5.837375373244286,5.427776747345924,0.24417470195570662,0.10754261077773183,-0.7430295287308648,0.6137755462919162
5.885281611084938,-5.874502269029618,5.400230514407158,0.4566200063529748,-0.18007959370221174,-0.7290267921977582,0.47706335636695296
5.892467254400254,-5.885281611084938,5.391847361326218,0.6020923856633866,-0.4412423673013211,-0.6080519560749296,0.2703012229679136
5.867316625714302,-5.843363506793976,5.415800480246544,0.6592177729478904,-0.6414442043694414,-0.39200368409417763,0.017730543338272196
5.837375373244286,-5.8110266500711445,5.414602385759354,0.6172236673647492,-0.7418062534831324,-0.12240452813481774,-0.231895576133355
5.803841006755829,-5.817014783620834,5.479276099205017,0.48468896852863513,-0.7332445399142238,0.16516445613343306,-0.4473809907704766
5.81941038787365,-5.842165997028351,5.52119420349598,0.28103306877507245,-0.6170393225890277,0.42848867159626175,-0.5972272155113246
5.880490987300873,-5.812224159836769,5.431369861364365,0.03603618911285225,-0.41035293926204014,0.6288862135433411,-0.6594042680543902
