1.7701354882121088,-9.547713201642036,2.077933066338301,0.5739009311680489,-0.37823414350041296,-0.6530441563678968,0.3179779610738726
1.774926111996174,-9.499806963801385,2.0958979055285454,0.6511306810470759,-0.5962187095519459,-0.4629564617270074,0.07888853607840204
1.7964839190244675,-9.466272597312928,2.0839213460683825,0.6328067907521151,-0.7266611603832467,-0.20494035300835717,-0.1718097065863631
1.8036698547005654,-9.444715082645416,2.0611658830940724,0.5216093691081642,-0.7504461453240874,0.0831013848464451,-0.3973014080813264
1.8168440701067448,-9.430343211293222,2.03601510822773,0.33380451579124165,-0.664098675656145,0.3589786565560193,-0.5645191036327863
1.8144487582147122,-9.42076196372509,2.0228408928215504,0.09698757649206258,-0.4802802264483492,0.5821685266967755,-0.6488483032362992
1.8048675106465817,-9.432738230824471,2.0216432368755344,-0.1540845183389118,-0.2258972224451937,0.7199292769020796,-0.6379108420140398
1.774926111996174,-9.48304007291794,2.0156549571454527,-0.38744703109724404,0.06858088852061449,0.7514100108611467,-0.52968335390241
1.7617518965899945,-9.509388211369515,2.025236204713583,-0.5579848369928784,0.3463566353183911,0.670420954355486,-0.3452908148474751
1.7294151860475542,-9.524957592487336,2.0348174522817137,-0.6466052455942064,0.5733322433569641,0.4909542443074647,-0.1102530049196532
1.7366011217236519,-9.526155686974526,2.05877057120204,-0.6403144616544485,0.7161226293314958,0.23937226901211936,0.1409492347744689
1.7270198741555214,-9.467470107078553,2.0755377544462683,-0.5400429847689036,0.7537553147963851,-0.0473278154664683,0.371438525063392
1.7473800252377987,-9.448307611942292,2.082723690122366,-0.36049774044488697,0.6807135297356772,-0.32709222810025,0.5474314056439766
1.7737284560501576,-9.43633134484291,2.093502593636513,-0.128042801942347,0.5077602852514543,-0.5588091003932988,0.6430528150235771
1.8000768868625165,-9.443516988158226,2.0887119698524477,0.12928955596021002,0.25377610991380806,-0.7109021134855225,0.6430397202338624
1.8264253176748753,-9.471063221096992,2.06835181877017,0.36165698494726506,-0.032344191490157534,-0.7539444980862031,0.5474721657958922
1.8216346938908101,-9.474656335115434,2.0803283782303335,0.5409129959071598,-0.31369016160498553,-0.6863014230198553,0.37148616411907015
1.8000768868625165,-9.487830696702003,2.0911072817444802,0.6407254982830499,-0.5490245860667239,-0.517869476425281,0.14090438293823612
1.7857050155103207,-9.473458825349809,2.0911072817444802,0.6464034244311736,-0.7037330188583958,-0.27337994855993486,-0.11038955918685407
1.797681574970484,-9.487830696702003,2.082723690122366,0.557151057039908,-0.7550650535018214,0.011230757013753047,-0.34544657288284536
1.7881003274023535,-9.51777194917202,2.074340098500252,0.38608616722825356,-0.6954893493647383,0.29421591859566304,-0.5297820586242235
1.8084604784846308,-9.526155686974526,2.074340098500252,0.15236197175308386,-0.5288662828298126,0.5388378417225961,-0.6377617617708227
1.8168440701067448,-9.516574439406396,2.06835181877017,-0.09873634339760753,-0.287257485646065,0.6978916954344071,-0.6485996090628325
1.8312159414589406,-9.471063221096992,2.0372127641737463,-0.33536771864582465,-0.0034961952860602247,0.7544518917218128,-0.5641973174220121
1.84439015686512,-9.443516988158226,2.009666677415371,-0.5227689591536719,0.2807205238048127,0.7002346312718375,-0.3969635550371494
1.8300182855129243,-9.427947607040405,2.0180502690374853,-0.6334522997632563,0.5237385063550735,0.5431881577040322,-0.17141407823075014
1.8168440701067448,-9.393215730786324,2.03601510822773,-0.651118164564897,0.6898481305652122,0.30637094626477107,0.07931920205190167
1.8156464141607285,-9.39800635457039,2.0024807417392734,-0.5700811594374463,0.7549071114164305,0.0176502312565793,0.3237455700452859
1.8180417260527613,-9.40399448812008,2.0120619893074037,-0.40615799701260474,0.7062364164660706,-0.2673552015101567,0.5145745832679023
1.8144487582147122,-9.461481973528862,2.0611658830940724,-0.1826114817098991,0.553829376037549,-0.5131049790298225,0.6298010395993164
1.8084604784846308,-9.495016340017319,2.0911072817444802,0.06775409026159016,0.3200391849291239,-0.6835110826883655,0.6525311511375566
1.8108557903766633,-9.481841978430749,2.0994908733665945,0.308152296868917,0.039242603988934095,-0.7535026881514447,0.5794271989776847
1.8180417260527613,-9.445912592411041,2.0731424425542357,0.5032696737955328,-0.2472620017262852,-0.7128304858988358,0.4212526988795184
1.8168440701067448,-9.4195638692379,2.03601510822773,0.6245069048792526,-0.4974644892519246,-0.5674786695862052,0.20121671713883116
1.8407971890270711,-9.414773245453835,2.0144573011994362,0.6535427536058654,-0.6776974761697339,-0.3326247019007819,-0.05448676617172419
1.8216346938908101,-9.42315698325634,2.0180502690374853,0.584882264299396,-0.7531561914991786,-0.053481277529232,-0.2963245536034859
1.8467854687571525,-9.387227597236635,2.0024807417392734,0.43037376054196996,-0.7179916542157901,0.2335706068538744,-0.49468291089075345
1.8623549960553647,-9.453098235726356,2.001283085793257,0.21272570962013898,-0.5773169879585216,0.48637681232574403,-0.6203954096485211
1.8419948449730874,-9.53932946383953,2.0659565068781376,-0.03617194315853515,-0.35169503296207205,0.6678452530392409,-0.6549693979957346
1.7773214238882065,-9.60280566751957,2.1773385098576545,-0.27971318461913586,-0.07428136493897768,0.7511506702929412,-0.5933089277024985
1.7102526909112932,-9.546515691876412,2.201291628777981,-0.48209322529525694,0.21392590264857123,0.7239907538698904,-0.4445888197102109
1.6419863019883634,-9.51417883515358,2.190512725263834,-0.615830472211022,0.47598465593759165,0.5861151730313164,-0.22507874344502657
1.7485776811838152,-9.425552587509156,2.1378158636391165,-0.6553540360943796,0.6613935960563965,0.3640838636301017,0.022639317891054007
1.755763616859913,-9.590828815698623,2.2575814582407476,-0.598954747334091,0.749795866794896,0.08843166530944087,0.2669067428032588
1.628812086582184,-9.524957592487336,2.639633705019951,-0.4548210717992086,0.7281342017982128,-0.2004997545226657,0.47197269545541437
1.6192308390140535,-9.51777194917202,2.5414259174466136,-0.24390380304941478,0.5997086817580334,-0.46005177913633294,0.6076288278180757
1.625219118744135,-9.632746919989586,2.190512725263834,0.0028137117794109585,0.3833770775092553,-0.6520689765232677,0.6540796200176114
1.6419863019883634,-9.532143820524217,2.0923049376904967,0.2548447858106111,0.10387954159644976,-0.7495158346291312,0.602070751343272
1.5725222571194173,-9.556096939444542,1.8839128030836583,0.46318536440679264,-0.1849934585531433,-0.7334589274075602,0.4618167821745379
1.5341972668468953,-10.099832446575165,1.940202632546425,0.6035905327329747,-0.4465777462729032,-0.6095760310095425,0.2542908723245712
1.6168355271220207,-10.719021009206772,2.2575814582407476,0.6559938292978327,-0.6421753266597487,-0.3964651883850293,0.009914643283258893
1.8072628225386143,-10.605243548154832,2.3605798695981504,0.6128995782428814,-0.7434882836042592,-0.12595894455614698,-0.2360373347993745
2.0276315166056156,-9.59202632546425,2.1294322720170022,0.48044369606251336,-0.7362446339344183,0.16242693696464414,-0.4480348022920198
2.0958979055285454,-8.509345350265503,1.997690117955208,0.27755427790037257,-0.6218502021696928,0.42681000297119104,-0.5950623246723379
2.0563752593100073,-8.13208416581154,1.8982846744358541,0.027180579448124482,-0.4112998381593604,0.6329759566268932,-0.6553129768005648
1.8192393819987775,-8.568030930161477,2.1689549182355403,-0.22187382572692102,-0.14421466897909346,0.7412413057938276,-0.6168755638648785
1.5090464919805529,-9.170451432466507,2.5330424720048907,-0.4381925389991646,0.14443477745367023,0.7411923879918628,-0.48760612979155055
1.3820949617028238,-9.880661262273788,2.818084587156773,-0.5898305939721142,0.41223166552949864,0.632393795166847,-0.28678042503586343
1.4276058876514435,-10.245947349071503,2.899525191485882,-0.6547773441364647,0.6195120774514914,0.43073308210977257,-0.044050283467315675
1.5270113311707973,-10.08905368924141,2.600111204981804,-0.6238205541544253,0.7357239255302019,0.16602979889607844,0.2049202954697835
1.733008153885603,-9.551306315660478,2.189315069317818,-0.501659508718326,0.743954593266065,-0.12294118758260031,0.4239749578295771
1.7916932952404023,-8.747679029703141,2.124641648232937,-0.30059293090767997,0.6393955387845393,-0.3996854150159156,0.5840109621353994
1.4838957171142102,-9.39800635457039,2.5929252693057063,-0.06005312545503624,0.4419082434912947,-0.6109839721680634,0.654071335720543
1.2395739041268825,-9.375250745415688,3.3486460250616075,0.18943909255974917,0.17990374988066898,-0.7328478270203558,0.6282368450039801
1.3617348106205465,-9.130928932428361,3.357029762864113,0.4112388830791828,-0.10814412046371823,-0.7477464154657264,0.5099634579174003
1.6623464530706407,-8.91056023836136,2.9115017509460452,0.5727735164049121,-0.38041242972177025,-0.6535262468064528,0.31641796243797926
1.9414002884924413,-9.102185189723969,2.371358773112297,0.6502669839022414,-0.5970834896266641,-0.4634898452821405,0.076297571273697
1.7665425203740597,-9.615979444384575,2.4683690509200096,0.6325018903223866,-0.7261739259847504,-0.20513942517481662,-0.17473008955943453
1.5389878906309606,-9.684246271848679,2.6599940022826196,0.5183463618420322,-0.7478750240970059,0.09022731949792963,-0.4047950448229949
1.5246160192787648,-9.466272597312928,2.643226819038391,0.33002382862485063,-0.6580731341615483,0.3654347994451468,-0.56963271499193
1.6922878517210485,-8.953675852417947,2.4839384320378306,0.09298200139211989,-0.47202810538226875,0.5870109187186502,-0.6511236414471739
1.8647503079473973,-8.34287161231041,2.197698660939932,-0.1583214530670493,-0.2169131012431794,0.7226790095985931,-0.6368815220222683
1.725822218209505,-8.861456490755081,2.160571326613426,-0.38617905473220954,0.07034667490026811,0.7522712252265021,-0.5291550686829243
1.4886863408982753,-9.72855939567089,2.651610264480114,-0.5571371283872754,0.34749594124730016,0.6710954864761751,-0.3442029038522764
1.4671285338699818,-10.041147451400757,3.000128290951252,-0.6474240380612287,0.5779208503749717,0.4860403506492454,-0.10302612864279033
1.6144402152299882,-9.842336272001267,2.946233627200127,-0.6398893417221992,0.7172416249614031,0.23290100047582454,0.14786211736079116
1.752170649021864,-9.533341330289842,2.6935283687710765,-0.5386252384942504,0.7514220450597259,-0.054399099015971536,0.3772114800500137
1.8958893625438213,-9.135719556212425,2.312673631757498,-0.3580569359321088,0.6755732955157399,-0.33368453685796884,0.5514078190221783
1.7689378322660925,-9.12853391289711,2.347405654191971,-0.12480847694442211,0.5004859033569371,-0.564140088498707,0.6447345695497297
1.5533597619831563,-8.972838347554207,2.632447769343853,0.12688599647711435,0.2518358850618752,-0.711909539326272,0.6431667269918172
1.55216210603714,-9.22913701236248,2.6983189925551416,0.35979831796017514,-0.033826426214323996,-0.7550739767109909,0.5470504848516685
1.564138665497303,-9.5022025680542,2.819282096922398,0.5432827620192339,-0.32088074959313256,-0.6843003816431094,0.3655302623811011
1.5198253954946996,-9.582445077896118,2.919885196387768,0.641805203477807,-0.5539623256433707,-0.5131323708990734,0.1338170112209003
1.4611402541399003,-9.441121968626977,2.937850181758404,0.6459566348272758,-0.7056037776545664,-0.26657628986324405,-0.11747517424960235
1.5341972668468953,-9.201590779423714,2.8827580082416535,0.5552145743803762,-0.7535098066236625,0.019011132094046267,-0.3515655338256174
1.590487096309662,-9.175242056250573,2.816886785030365,0.38286327720947083,-0.6907937419386326,0.3017141176081745,-0.5340302503592531
1.7246245622634888,-9.130928932428361,2.4719618725776673,0.1538681135279205,-0.5268217480657326,0.5401715199592717,-0.6379640886673912
1.7078573790192606,-9.522562572956085,2.4647759369015696,-0.09770623168132585,-0.2852549049906714,0.6992976297525795,-0.6481249543813464
1.609649591445923,-9.51178381562233,2.7019118142127994,-0.34017711544442236,0.0052898628118777085,0.7556606457086875,-0.559668237446501
1.6767183244228363,-9.487830696702003,2.689935254752636,-0.526556781982219,0.2885756747381982,0.6981116428636126,-0.39000278126725146
1.6767183244228363,-9.607596291303635,2.804910225570202,-0.6356760854082891,0.5292316670684938,0.5377117390827657,-0.1633886246483654
1.6204284949600698,-9.5297482162714,3.1127079498767856,-0.6516491709396145,0.6919605070774456,0.2982923062375797,0.08698111690650637
1.7617518965899945,-8.957268966436386,3.019290786087513,-0.5718266431392521,0.753139802233669,0.015379086307545883,0.32489723327826203
1.928226073086262,-8.63150654911995,2.6216690120100976,-0.40774657366331635,0.7039327456415883,-0.26956652962944994,0.5153205869969252
1.8431925009191037,-8.865049604773521,2.5450190314650536,-0.17771637341725663,0.546675679053215,-0.5202180714529918,0.6316136086919394
1.7366011217236519,-9.302193878889085,2.509089353084564,0.073501921728034,0.31149259013776814,-0.6880436496388094,0.6512801010189531
1.7569612728059292,-9.617177538871765,2.415672043114901,0.31390864260011786,0.030609094194468427,-0.7547629024536016,0.5752020588744106
1.7665425203740597,-9.863894956111908,2.352196277976036,0.5082148308538491,-0.25481769417569394,-0.7105255716031749,0.4146553273903011
1.6934855076670647,-9.865092465877533,2.5462165412306788,0.6279544711036973,-0.5027438902721874,-0.5617211950409929,0.19336768617476252
1.6695323887467386,-9.577654454112054,2.822875210940838,0.6556870515200717,-0.6765964806711231,-0.3303411690586233,-0.05627081692447284
1.7509729930758478,-9.278240759968758,2.8959320774674415,0.5872589201007972,-0.7509207535334516,-0.05057787022042848,-0.29780339440436904
1.828820629566908,-9.254287641048432,2.8791648942232135,0.4279017505127988,-0.7128357385681872,0.24309544587404155,-0.4996697968892363
1.9437956003844739,-9.364471988081933,2.7067024379968645,0.2083966131686886,-0.5696821201036267,0.4941138316945734,-0.6228038655806206
2.0156549571454527,-9.479446958899498,2.5342399817705155,-0.041884397416145816,-0.34293712160555245,0.6726030898605808,-0.6544042415724278
2.0072713655233385,-9.577654454112054,2.3545915898680687,-0.28603818793933505,-0.0658800000875513,0.7523711266210854,-0.5897284701078662
1.9857135584950447,-9.674665024280548,2.3881259563565256,-0.4881748538665797,0.22088785386163312,0.7215934368555326,-0.43840253187654615
1.9665510633587837,-9.757303138375283,2.5019034174084664,-0.6186045932947051,0.4751600568327032,0.5847520164756795,-0.22274729352578312
1.9761323109269142,-9.838743742704391,2.7055049282312393,-0.6582810900154901,0.6595266482814108,0.3619959068146184,0.025486666792043814
2.0156549571454527,-9.811197509765625,2.8492236417531966,-0.5988505641131867,0.7477783162571514,0.0792724436635706,0.2755385114145455
1.9928994941711426,-9.551306315660478,2.984558617472649,-0.4518783671972997,0.7229427668761081,-0.20889021379633013,0.47908723178638696
1.9485862241685392,-9.217160160541535,3.0109070482850075,-0.23832632901084863,0.5922639444473691,-0.46644697180092903,0.6122509318127657
2.0024807417392734,-8.934513357281686,2.796526780128479,0.010577794162938659,0.37496462459084406,-0.6557028888738315,0.655242979434809
2.0647588509321215,-8.856665866971017,2.4887290558218957,0.25807747353462596,0.10273142947284006,-0.7489029796651254,0.6016532208017739
2.0575729152560234,-9.183625794053079,2.317464255541563,0.4674940049486102,-0.18480798365836196,-0.7321876193853712,0.45956137188848023
2.039608076065779,-9.673466929793358,2.355789245814085,0.6080181705680862,-0.44532338568582697,-0.6077737915202057,0.2502239092523002
2.0647588509321215,-9.902219946384431,2.601308714747429,0.6593723334100358,-0.643946114813843,-0.3880194149321919,-0.001568689019835418
2.0767354103922844,-9.79323252439499,2.8097008493542672,0.6120770492250598,-0.7422567507301641,-0.11540993894700335,-0.24717837243515378
2.117455712556839,-9.50459758758545,2.8923392558097842,0.4754682767592562,-0.7316421848383061,0.1739065344815488,-0.4564933169557153
2.1761408539116385,-9.21596265077591,2.9294664439558984,0.2694517137101603,-0.613962187380762,0.43761328854832066,-0.5991166965885795
2.1953033490478995,-8.992000842690468,2.907908636927605,0.023981299242245947,-0.4066738484751547,0.6373336908790469,-0.6541001794247977
2.251593178510666,-8.8542702627182,2.798922092020512,-0.22507022065223609,-0.14011010368245977,0.7440732632881248,-0.6132434536800251
2.3114759758114816,-8.850677733421326,2.695923680663109,-0.44574004307506326,0.1537417765838377,0.7408813816872378,-0.4783033121372833
2.3545915898680687,-8.960862080454827,2.685144630968571,-0.5953985401413429,0.4184862339245493,0.6280510371519084,-0.2755390083919467
2.3354290947318077,-9.254287641048432,2.7881430423259737,-0.6578609341170332,0.6220880144957549,0.423274457057497,-0.03262250122347003
2.380940020680428,-9.269857022166253,2.875572072565556,-0.6240609271513271,0.7346885780698428,0.15657213288363894,0.2150949084962423
2.3893236123025416,-9.114162041544915,2.8600023990869525,-0.49895393937283405,0.739800752526852,-0.13294538879230386,0.4313529141479132
2.293511136621237,-9.03990708053112,2.917489884495735,-0.3009024882870092,0.636677508747613,-0.4030556711449298,0.5845045494737655
2.2156635001301765,-9.062662689685823,3.0180929839611057,-0.05890134223887412,0.44041671410005484,-0.6142049300852042,0.6521625975803882
2.162966638505459,-9.098592075705529,3.0947429645061493,0.19753828625782344,0.17308287305899572,-0.7371624105050032,0.6225853556376179
2.231233027428389,-9.013558942079545,3.0791735833883287,0.41907363307056594,-0.11393514051808618,-0.7482330056120704,0.5015410682415629
2.339022062569857,-8.941699585318565,3.0636039099097254,0.5793886765987516,-0.38426047465719615,-0.6498970968866129,0.30706092637085236
2.485136234164238,-8.896188367009163,2.951024250984192,0.6549766816253625,-0.5983070874137925,-0.45660067695733475,0.06745366913338839
2.5797509077191356,-8.995593956708909,2.8336539682745934,0.6347497722304496,-0.7247614288077485,-0.19650396768631145,-0.1822080916136282
2.5414259174466136,-9.062662689685823,2.8492236417531966,0.5216304200731215,-0.7450592713439744,0.09233135227350925,-0.4052941011488691
2.4372298501431944,-8.990803332924843,2.918687686622143,0.3321109684403788,-0.6562251989905027,0.36765590003227866,-0.569122071284293
2.3689634612202646,-8.91774646639824,2.9965351769328117,0.08786926343025722,-0.4659061093820354,0.5934485742111189,-0.6504070106875456
2.3641728374361994,-8.81714336693287,2.9797679936885837,-0.16391730159561735,-0.21071404027173013,0.7261405521203396,-0.6336013021106754
2.4635784271359444,-8.674622163176537,2.818084587156773,-0.39188659718936425,0.07529575479113335,0.7524647814051774,-0.523977286720172
2.5270540460944177,-8.565635325908662,2.6264596357941628,-0.5625750354255943,0.3503200071291094,0.668512515067436,-0.3374555368032404
2.5689721503853797,-8.591984049081804,2.5462165412306788,-0.650847315007682,0.5740330808430639,0.4864043289549813,-0.1014624236797342
2.604901828765869,-8.696179677844048,2.646819640696049,-0.6438207688998097,0.7134761283690326,0.23267996537627136,0.14935416128548493
2.700714304447174,-8.782410905957223,2.735446180701256,-0.538961602765941,0.7475371547045963,-0.06218937566864366,0.38319847942556984
2.81568927526474,-8.814747762680055,2.838444592058659,-0.3566063895809256,0.6695410525289814,-0.3412640051965103,0.5550545384425543
2.8456305277347567,-8.783609000444413,2.927071132063866,-0.12199879412659378,0.4931584884540966,-0.5702285158858007,0.6455621110071477
2.816886785030365,-8.790794643759728,2.9869539293646814,0.13038304324807304,0.2443314618604447,-0.7154502204936332,0.6414307295212173
2.7761664828658104,-8.867444624304772,3.0252789196372034,0.36351348889585594,-0.040434687150347766,-0.7556929963953142,0.5432780822607218
2.862397710978985,-8.93331584751606,2.9019205033779145,0.5432523476488361,-0.31926476881893306,-0.6850987060982838,0.365495084874583
3.0025236028432847,-9.201590779423714,2.827665834724903,0.643296520752859,-0.5513033703790439,-0.5140172091056753,0.1342404147013321
3.065999221801758,-9.384831992983818,2.939047691524029,0.6478882965525179,-0.7050280502966095,-0.26099318014120965,-0.12271415323839471
3.0755804693698883,-9.314170145988465,2.9546173650026324,0.556180963363628,-0.7506577499205322,0.025100196203898282,-0.355732566159856
3.1067195239663126,-9.213567046523094,2.8348517704010012,0.38280155595035276,-0.6862951994873124,0.3073459810693678,-0.5366566088693654
3.1210913953185084,-9.188416417837143,2.7162836855649948,0.1531325873192035,-0.5214518892696959,0.5444567191003795,-0.6389093980404748
3.1139054596424103,-9.213567046523094,2.657598690390587,-0.09909966328431856,-0.280263356973622,0.7017946059453231,-0.6473917195491921
3.0923476526141167,-9.287822007536889,2.695923680663109,-0.33684459462510813,0.0020643137477416125,0.756299677516431,-0.5608406685228344
3.065999221801758,-9.370460121631623,2.8097008493542672,-0.525111660345518,0.28418122914798133,0.6998932162782968,-0.3919799216499962
3.0300695434212686,-9.441121968626977,2.8683861368894576,-0.6377183764108032,0.5296682689778616,0.5360024545474832,-0.15958748680594656
3.065999221801758,-9.354890740513802,2.758201789855957,-0.6529538623601114,0.6910805097867256,0.29613429272389497,0.09145197261322775
3.0923476526141167,-9.360878874063493,2.6300524574518205,-0.5722078752903443,0.7510705088591254,0.012845447448396585,0.3290991228454652
3.0348601672053337,-9.41716884970665,2.6168783882260325,-0.4073751527009466,0.7007907557132411,-0.272345331497991,0.5184262937776152
3.0216860979795457,-9.31057761669159,2.601308714747429,-0.1826421019460411,0.5476583233556467,-0.5174347749922188,0.6316434730801591
3.0600110882520677,-9.248299507498741,2.480345610380173,0.06891062293899428,0.31424982191273904,-0.6864247504606468,0.652165191825668
3.0863595190644264,-9.247101413011551,2.385730644464493,0.3157848395967176,0.02788509409258108,-0.7549612470026674,0.5740521510564182
3.0755804693698883,-9.183625794053079,2.343812686353922,0.5102894266456333,-0.25626694956591095,-0.7097799722727557,0.41248556650425955
3.0372554790973667,-9.12494079887867,2.352196277976036,0.6299297953903777,-0.5028015490318015,-0.5604542026161373,0.19044721562828737
2.994139865040779,-9.051883932352066,2.420462666898966,0.6572106470825979,-0.6755646457163474,-0.32885324906087354,-0.05951567357869494
3.0156976720690727,-9.01116333782673,2.4492064096033572,0.5880755107503377,-0.7491949100524159,-0.04902308368744238,-0.30078383878303006
3.0947429645061493,-8.909362728595735,2.4456134417653086,0.4325165173752846,-0.7128979598661216,0.23801045236441434,-0.49805319553393457
3.142649202346802,-8.763248410820962,2.481543120145798,0.21324732928702955,-0.5718891032376747,0.4901853210448176,-0.6222433456310694
3.115103261768818,-8.756062767505647,2.5150774866342545,-0.04355398193351459,-0.3406056165968676,0.673608303124155,-0.6544789672423394
3.0444414147734644,-8.918943976163865,2.531844669878483,-0.2880144446769464,-0.06358532672646598,0.7526359635151523,-0.5886796177091042
3.0312673455476764,-9.077034561038017,2.5402284076809885,-0.4900510667022212,0.2228410270304311,0.7208962525624522,-0.43646353998639004
3.0731851574778557,-9.145300803780556,2.5486118531227113,-0.6200646756431002,0.47647696720806937,0.5830740331053272,-0.22025932365760467
3.127079821228981,-9.195602645874024,2.5390306055545806,-0.6590540439241889,0.6600451499620487,0.3594346062892995,0.02819452075149046
3.219299182891846,-9.177637660503388,2.4779502984881403,-0.6013048987948386,0.7465112334332156,0.08300725509650936,0.2725127384998562
3.2719960445165635,-9.029128323197366,2.4192650109529494,-0.4551358308152644,0.7232480184509106,-0.20560805884405844,0.4769580751526371
3.230078232586384,-8.796782777309419,2.342615030407906,-0.2360343926366351,0.5894718153335756,-0.46955093607353454,0.6134595853456535
3.166602321267128,-8.696179677844048,2.2803369212150577,0.013406841892296134,0.3707894052712816,-0.6577693759463045,0.6554959356062047
3.1198938855528833,-8.877025871872902,2.2923134806752206,0.26079616138965206,0.09734594147187729,-0.7491708451980125,0.6010425730251328
3.1438470044732094,-9.183625794053079,2.2623720820248128,0.4696808939865598,-0.19051973061087163,-0.7301696362391012,0.4582078048073881
3.2169038709998135,-9.372855725884438,2.2192564679682256,0.609446713286383,-0.4502796894493513,-0.6035488335997414,0.2480961716637575
3.246845415830612,-9.363274478316308,2.2000939728319646,0.6596740361331863,-0.6436560630086177,-0.38798793427480754,0.001549664855933418
3.2288804304599763,-9.243508883714677,2.2539884904026986,0.6130341184778917,-0.7421424855822447,-0.11533955283974057,-0.2451744036937193
3.192950752079487,-8.977628971338273,2.329440815001726,0.4719835438521046,-0.729788708041718,0.18097366080998675,-0.46031349104782965
3.1689976331591607,-8.787201529741287,2.39650954797864,0.26385763836331044,-0.6089689262208429,0.4436727556476762,-0.6022378927556514
3.179776682853699,-8.619529697299004,2.4084861074388026,0.016848739319381734,-0.39868468242087296,0.6410465271977177,-0.6556111606387287
3.237264168262482,-8.619529697299004,2.4180673550069334,-0.23271894421419845,-0.1297799495972581,0.7441252459293184,-0.6125982990973723
3.288763227760792,-8.782410905957223,2.4084861074388026,-0.4480679104951717,0.15821497388658365,0.7377473230789556,-0.4795123115337014
3.3366694656014446,-8.906967124342918,2.3641728374361994,-0.5975183356880974,0.42290393284987776,0.6229003780795579,-0.2758971204724252
3.4061335104703905,-8.881816495656967,2.3102783198654655,-0.6593449289772934,0.6292615102908509,0.4106704701092316,-0.02537678621630632
3.361820386648178,-8.811154648661613,2.4324392263591292,-0.621576187326904,0.7372963396851333,0.14185953079370328,0.22341222965192514
3.222892296910286,-8.72612151503563,2.6288549476861953,-0.4921889009479322,0.7367919687030886,-0.14793328948045198,0.43932154795979034
3.1881601282954217,-8.651866554021836,2.6875399428606035,-0.29021716850672835,0.62781228220239,-0.41583792425173327,0.5905121117926148
3.230078232586384,-8.643482816219331,2.619273700118065,-0.04544752836485724,0.426479041600625,-0.6224294305201483,0.6546997428312475
3.2839726039767267,-8.680610296726227,2.562983724474907,0.2060665991063724,0.16231868110437564,-0.7374267181712693,0.6224074532204936
3.3115188369154933,-8.781213396191598,2.6300524574518205,0.4271548161910227,-0.12584026362736186,-0.7437907578448061,0.49847597695341217
3.3246929061412813,-8.837503371834755,2.7833524185419085,0.5880559723518132,-0.4013800648793601,-0.6369097276869568,0.2956860085910911
3.4013428866863253,-8.827922124266625,2.8132939633727077,0.6576877107146543,-0.6109453915722978,-0.43743484352872375,0.0533231784357422
3.4624234861135483,-8.896188367009163,2.689935254752636,0.6303697768714853,-0.7305715615495104,-0.17361529017884578,-0.19686764304531898
3.4552375504374506,-9.03391894698143,2.5653790363669398,0.5102211153482916,-0.742659258613689,0.11581177820045047,-0.4179943433566546
3.4121219363808635,-9.253090131282807,2.4456134417653086,0.31505959437547987,-0.6454227405186785,0.38819729310274514,-0.5774684403852888
3.3737969461083415,-9.292612631320955,2.4420204739272595,0.07369483836385309,-0.45322542331154186,0.6034018257341018,-0.6519678083796409
3.4025406888127327,-9.112963947057725,2.4695665606856347,-0.17850655487924172,-0.19437217898184458,0.7298669884824609,-0.6305941999626521
3.4217031839489938,-8.934513357281686,2.52346122443676,-0.4092018579701637,0.09995097606947635,0.7481757357484127,-0.5126370160784787
3.4217031839489938,-8.875828362107278,2.5905299574136733,-0.5737586638188228,0.372889400875008,0.6547140502729571,-0.3210981201799482
3.408528822362423,-8.953675852417947,2.589332155287266,-0.6538494646631101,0.5910964446614145,0.46508534471432506,-0.08234981967410189
3.377389767765999,-9.068650823235512,2.4743571844697,-0.6377088958848555,0.722508005913392,0.20722484378244077,0.16842627354339734
3.2971469655632974,-9.139312670230867,2.3749517409503462,-0.5278451944323354,0.7478530869193133,-0.08106435690321843,0.39436503539209916
3.2061251136660576,-9.041104590296746,2.3749517409503462,-0.3404828858182039,0.6634257938557035,-0.3574008891394228,0.562318615158868
3.25043823748827,-8.81594527244568,2.3054876960814,-0.09697223584321847,0.47646153609988656,-0.5855971057004729,0.6485806194206956
3.352239139080048,-8.750074633955956,2.279139265269041,0.15552347851441026,0.22290387682248675,-0.7216408826934546,0.6366794686132851
3.426493807733059,-8.795585267543792,2.3222548793256284,0.38523805570857184,-0.06331780623441696,-0.7518154466507306,0.5313718378168931
3.472004733681679,-8.880618985891342,2.367765805274248,0.5584411762914439,-0.34020090967117356,-0.671726422679615,0.34812412550006033
3.456435060203076,-8.978826481103898,2.390521268248558,0.6497207195766066,-0.5672348064661082,-0.49311407731072204,0.11378122711681621
3.4360750553011896,-8.965652704238892,2.382137676626444,0.6456590837189659,-0.7110715449326382,-0.2422002086762965,-0.1372613001375662
3.403738198578358,-8.924932109713556,2.4336368823051453,0.5469378286016956,-0.7505737615922786,0.04427185697590418,-0.3681549167586718
3.389366327226162,-8.918943976163865,2.5486118531227113,0.36293948380692587,-0.6769736536771832,0.33054525283066116,-0.5483807428712663
3.44565630286932,-8.92014148592949,2.5534024769067765,0.1292569192932965,-0.5044482360766522,0.5613148820070728,-0.643234194653352
3.5019459861516955,-8.872235248088836,2.4420204739272595,-0.12348820149644534,-0.25791850436561276,0.7098376086229448,-0.6437074479772918
3.4432609909772873,-8.880618985891342,2.324650191217661,-0.3580753830284747,0.02659784277491012,0.7543335613929563,-0.5495957177643865
3.3258907082676887,-9.007570223808289,2.3270455031096935,-0.5399283853427358,0.3073785354370161,0.6880911699135915,-0.37486839896252416
3.19893917798996,-9.186021398305893,2.382137676626444,-0.6424509408035819,0.5431196792028852,0.5207353332492908,-0.1453014639599262
3.200136687755585,-9.256682660579681,2.3761493968963623,-0.6507354921566909,0.6990748586744908,0.276983199240175,0.10544177803654153
3.224089806675911,-9.245903903245926,2.370161117166281,-0.5604132984013223,0.7523934210340569,-0.014312339880488602,0.34588470895193413
3.1905554401874543,-9.120150175094604,2.4456134417653086,-0.38904895709682946,0.6927294612049428,-0.2969970056020259,0.5296787528530943
3.0983360785245897,-8.872235248088836,2.518670600652695,-0.1606404961195004,0.5315564972889439,-0.5361088617257114,0.6357905390736417
3.0432439050078393,-8.72612151503563,2.518670600652695,0.09134006547410921,0.2925054148042971,-0.6966825759623821,0.6486377749559235
3.0372554790973667,-8.814747762680055,2.5162752887606623,0.32985692891224977,0.010557414859790155,-0.7552025243714849,0.5663497988195935
3.0360579693317415,-8.978826481103898,2.5019034174084664,0.5199349479299762,-0.2729331530257343,-0.7030916155448373,0.40104528927670324
3.109114835858345,-8.974035857319832,2.4120790752768517,0.6338159618569418,-0.5164165044686242,-0.5480169210558475,0.17682979003617008
3.165404811501503,-8.874630852341653,2.333033782839775,0.6540542746287125,-0.6870506902430277,-0.3063630715371778,-0.07947341237668087
3.1127079498767856,-8.84588710963726,2.3533939339220526,0.5768414863889139,-0.7518936562612798,-0.02455628531567343,-0.31828732005244587
3.0791735833883287,-8.837503371834755,2.470764362812042,0.4150978977764734,-0.7064363453872197,0.2608351741969094,-0.5104962654899342
3.071987647712231,-8.91056023836136,2.5150774866342545,0.19254069355439488,-0.5573759769153245,0.5079575862835569,-0.6278846965966467
3.0971382763981823,-8.962059590220452,2.5390306055545806,-0.05824680368486853,-0.3265015845177792,0.6806472077799421,-0.6532406935496625
3.10791732609272,-8.982419595122337,2.5450190314650536,-0.30045092642762755,-0.04763540710695324,0.753513051623481,-0.582819174214099
3.0875570288300516,-8.982419595122337,2.531844669878483,-0.5024796767725869,0.24486375066565613,0.7136184634819034,-0.4222613013504687
3.0731851574778557,-9.051883932352066,2.5605884125828746,-0.6254008414564727,0.4945561887576294,0.5684912802791942,-0.2027452290772503
3.0815688952803613,-9.01475645184517,2.562983724474907,-0.6565787641969498,0.6716827596513633,0.3399828594615236,0.046456991563175745
3.161811697483063,-8.859060886502267,2.4456134417653086,-0.591369501925196,0.750318278942435,0.061639170283641756,0.28897267200265125
3.1893579304218296,-8.794387757778168,2.293511136621237,-0.439290227201428,0.7188791064353568,-0.22576704708457943,0.4891484100625596
3.1390563806891443,-8.857863376736642,2.2827322331070903,-0.22278156087879844,0.5818574222571039,-0.480079276255424,0.6175226350562325
3.071987647712231,-9.012360847592355,2.3797423647344114,0.02629494222255483,0.3592808743914664,-0.6639361795101771,0.6552973209524405
3.057615776360035,-9.085418298840523,2.434834538251162,0.2770019694223664,0.07706381915723222,-0.7510726247309852,0.5943239765420377
3.076778271496296,-9.027930813431741,2.505496239066124,0.4809712675925452,-0.21039399103639952,-0.7246042351892255,0.4464859579337669
3.0588132861256603,-8.813550252914428,2.5486118531227113,0.6143420322508565,-0.4670546042583224,-0.5917557462421668,0.23295707939525268
3.0061164245009424,-8.72252840101719,2.570169660151005,0.6574246188281349,-0.6551195284354706,-0.37201019561007953,-0.014821888655596758
2.9486289390921594,-8.812352743148804,2.5653790363669398,0.6038823086756505,-0.7469568201861846,-0.09763688527829292,-0.2604778391323603
2.9725820580124855,-8.924932109713556,2.537833095788956,0.4615987796240882,-0.7290343577364276,0.19099142977521644,-0.467929210075419
3.0061164245009424,-8.940501490831375,2.555797788798809,0.2515335731748231,-0.6039811499285456,0.45146880499580494,-0.6067236192967582
3.0444414147734644,-8.897385876774788,2.589332155287266,-0.0016290722533681187,-0.38424113673108273,0.6491629528667737,-0.6564629125795984
3.080371093153954,-8.894990857243538,2.614483076334,-0.24889614413152966,-0.11220182805328795,0.7457494952992475,-0.6077163396510538
3.095940766632557,-8.892595252990724,2.7114930617809296,-0.45966907935313767,0.17627109433660337,0.7327073152619455,-0.4698646921717435
3.10432421207428,-8.821933990716934,2.7869455325603485,-0.6029998465937688,0.4388969995329307,0.6120509308207807,-0.2629719887940494
3.148637628257275,-8.75127214372158,2.7905383542180062,-0.6577581767341626,0.6370599273812848,0.40150418902470514,-0.017413100238499138
3.1689976331591607,-8.787201529741287,2.7761664828658104,-0.6158805025839859,0.741655723296711,0.13189398035711217,0.23074222106863576
3.1773813709616663,-8.880618985891342,2.7749689731001856,-0.4792594277712445,0.7358410899341643,-0.16395978506740283,0.44940569660111296
3.1833695045113566,-8.977628971338273,2.7869455325603485,-0.2745039391058712,0.6205835179668597,-0.42887719340994607,0.5963120304136454
3.1558235639333727,-8.970443328022958,2.8144914731383324,-0.029430680301208056,0.41405690172547943,-0.6308146188621034,0.6555636001337811
3.1007313904166223,-9.000384580492973,2.7881430423259737,0.21989458809000903,0.14660955971945341,-0.7400798204804994,0.6184123757212052
3.0863595190644264,-8.992000842690468,2.723469621241093,0.43683725523258254,-0.14238862669770733,-0.7405635106241831,0.4903716734885795
3.0600110882520677,-9.063860199451447,2.704307126104832,0.5895375559987955,-0.4105295504495251,-0.6321724600260797,0.2902911281097863
3.028872033655644,-9.084220204353333,2.733050868809223,0.6555330789241469,-0.6183347139856965,-0.4308983111147537,0.047594215981649014
3.0444414147734644,-9.002779600024224,2.7510158541798595,0.6232071580112333,-0.7368236256494441,-0.15957614936215508,-0.2079404612938923
3.027674231529236,-8.966850214004516,2.7414346066117288,0.49895333240659767,-0.7430346458779431,0.12947733439969292,-0.4268263194580916
3.00731422662735,-8.962059590220452,2.6983189925551416,0.3013583678046935,-0.6401296169430938,0.3994808141765891,-0.582951358838101
2.9677914342284204,-8.957268966436386,2.6923305666446686,0.05949696952133241,-0.4431758562966734,0.6107949073578856,-0.6534407793818502
2.9031180131435397,-9.019547075629236,2.765387725532055,-0.1909819858617199,-0.1811235712420133,0.7323648399630805,-0.6279823836722688
2.933059557974339,-9.009965828061103,2.7881430423259737,-0.41338821470522913,0.10739218242279053,0.7463878849276988,-0.5103745960864919
3.061208598017693,-8.945292114615441,2.6923305666446686,-0.5752556901808354,0.3800356078016658,0.6509070971827416,-0.31776371497470557
3.10791732609272,-8.848282129168512,2.6731680715084076,-0.6533818376410724,0.6011300207937378,0.4544368775735818,-0.07226338382935896
3.0971382763981823,-8.802771495580673,2.7246674233675003,-0.6326582466492665,0.727971438585911,0.19470808016757196,0.17857740917398673
3.1258820191025736,-8.890200233459472,2.779759596884251,-0.5190301964973423,0.7478313203141025,-0.09363313460202931,0.403223024622596
3.147439826130867,-9.019547075629236,2.8120961612463,-0.32921990872155615,0.6577802920462699,-0.36821985378894195,0.568641783878519
3.1689976331591607,-9.061465179920196,2.8264680325984957,-0.09104468780636016,0.47099310714087544,-0.5887824366256665,0.6505471544547476
3.165404811501503,-9.032721437215805,2.8396423941850664,0.16046647718682427,0.21489208924897146,-0.7228144999351691,0.6368760463080192
3.1210913953185084,-9.048290818333626,2.885153320133686,0.38829397607825794,-0.07283736662704228,-0.7505860818908984,0.5296631380753664
3.0863595190644264,-9.074638956785202,2.9222805082798007,0.5621811857566368,-0.3560631046833139,-0.6648285519049395,0.3393735057963755
3.05282515257597,-9.09619705617428,2.9150945726037025,0.6485719541490795,-0.5800407404300532,-0.48198159493973347,0.10296068119408834
3.0061164245009424,-9.116557061076165,2.8731767606735232,0.6395992024236563,-0.71884864384417,-0.22826161922108867,-0.148546695328395
2.9833611077070237,-9.148893917798997,2.819282096922398,0.5366328383712102,-0.7520249521090708,0.05900098038452349,-0.37815678296266686
2.971384548246861,-9.075837051272392,2.798922092020512,0.35481085161651604,-0.6747388609298643,0.33754618803297737,-0.5521768739005989
2.980965795814991,-8.977628971338273,2.8204798990488054,0.12076556077756527,-0.49835822564871146,0.5665180748917695,-0.6450674608746528
2.9821633055806163,-8.886607119441033,2.81568927526474,-0.13712230105788623,-0.24227797598208023,0.7145867233612252,-0.6417668359322449
2.9989304888248447,-8.865049604773521,2.8144914731383324,-0.3688884788035454,0.04416216672076953,0.7530426612740785,-0.5430448816974401
3.0180929839611057,-8.889002723693848,2.765387725532055,-0.54644543356968,0.3241404916192076,0.6808496766524069,-0.3643817333868641
2.980965795814991,-9.036313966512681,2.792933666110039,-0.6436182225591558,0.5564603775349297,0.5085495682779797,-0.1322299830891503
3.0025236028432847,-9.055476461648942,2.8647930228710177,-0.646240573901829,0.7069315116283128,0.26149301988588036,0.11934135519972029
3.0671970239281654,-9.060267085433006,2.880362696349621,-0.5539885668454929,0.7534150953649799,-0.023929105678961466,0.3533974529931705
3.1139054596424103,-8.982419595122337,2.8767695823311805,-0.3803802811282956,0.6891780645353754,-0.30573026009940096,0.5356056806565678
3.116300771534443,-8.92972273349762,2.862397710978985,-0.14485790230009893,0.5187438271671626,-0.5474361330367128,0.6404956753663449
3.083964207172394,-8.953675852417947,2.8707814487814907,0.10691621857354504,0.2748954583272186,-0.70232927521684,0.647869584384381
3.0743829596042636,-8.951280832886697,2.9019205033779145,0.3429756450916112,-0.009288747763353304,-0.7540459011196736,0.5600858907735505
3.051627350449562,-8.966850214004516,2.9450361174345017,0.5286497442069301,-0.292182592788594,-0.695009644639245,0.39002611999674136
3.0240814098715783,-9.021942095160485,2.955814874768257,0.6366243643360358,-0.5321935054071191,-0.533863091185599,0.16269508722139642
2.9821633055806163,-9.098592075705529,2.9630008104443553,0.6510859724074443,-0.6940239663857785,-0.2942616043764332,-0.08847541356903724
2.9306642460823062,-9.160870184898377,2.942640805542469,0.5699183931214699,-0.753918229254037,-0.011433926391567217,-0.3266031140506336
2.904315815269947,-9.079429580569268,2.946233627200127,0.40017296793385637,-0.7006038835968216,0.2795136496152761,-0.5204689363476065
2.9354548698663714,-8.941699585318565,2.942640805542469,0.17476504038270466,-0.544251397525249,0.5224170234423615,-0.6327148256279982
2.971384548246861,-8.894990857243538,2.937850181758404,-0.07634400038295762,-0.30797825098631476,0.688599187925128,-0.6520369229681642
2.9929423552751544,-8.897385876774788,2.918687686622143,-0.31625062334913256,-0.026508506477717502,0.7536828543572138,-0.5755388756318454
2.988151731491089,-8.974035857319832,2.869583646655083,-0.5096971996583802,0.25889501015765576,0.7081084262387154,-0.41444492404371713
2.9438383153080943,-8.995593956708909,2.8647930228710177,-0.6282249565184229,0.5062732000623906,0.5585366377331192,-0.19250370182361268
2.9019205033779145,-8.952478342652322,2.8540142655372622,-0.6538312922406924,0.6823339944794544,0.32070683899365754,0.06381288809695596
2.8647930228710177,-8.889002723693848,2.8480258396267892,-0.5817433130304294,0.752982514131639,0.04048480184431574,0.30488199680532546
2.8827580082416535,-8.851875243186951,2.8132939633727077,-0.42429051309014154,0.7130854214803707,-0.24555091852627237,0.5011900723126612
2.9091064390540122,-8.92732771396637,2.800119601786137,-0.20462641359879927,0.5685340828798567,-0.4955014346522622,0.623999483749148
2.936652379631996,-8.93331584751606,2.856409577429295,0.045030083391134075,0.3405842474257525,-0.6726850253871535,0.6553392393372354
2.989349241256714,-8.867444624304772,2.904315815269947,0.2881010754904168,0.06274267251449231,-0.7511691409633233,0.590598043521503
3.027674231529236,-8.820735896229744,2.9306642460823062,0.4889782031153419,-0.22434079463728926,-0.7195128739684933,0.43917280076662324
3.0492320385575296,-8.82552652001381,2.8719789585471154,0.6200926999134245,-0.4839066046422749,-0.5779763552644317,0.21740003278037484
3.027674231529236,-8.868642134070397,2.855211775302887,0.6561891479537569,-0.6658521934233624,-0.35362586610570185,-0.03170812895791748
2.96180330067873,-8.94888522863388,2.9115017509460452,0.5959606821600151,-0.7500934073881615,-0.07727915864846226,-0.2760773028533362
2.9210829985141755,-9.071046427488328,2.9594079887866975,0.44832226439159173,-0.7242244450561485,0.21044349578939422,-0.47981208354297283
2.9115017509460452,-9.139312670230867,2.9773726817965507,0.23494631783594166,-0.5920205896662072,0.46732439065783116,-0.6131229591549282
2.894734567701817,-9.12853391289711,2.9414430034160617,-0.012862408398391725,-0.3728895148153403,0.65562372710079,-0.656464391001859
2.8528164634108544,-9.111766437292099,2.927071132063866,-0.258687171760752,-0.09901648890020247,0.7476700642654502,-0.6035446603968896
2.8144914731383324,-9.12134768486023,2.96180330067873,-0.4707888373920267,0.1961204562413609,0.728263677578607,-0.45774081438126873
2.8408399039506915,-9.090208922624589,2.9534195628762245,-0.6082836529630763,0.45553464746540334,0.6011037964973686,-0.24729215178188846
2.8671883347630502,-9.03391894698143,2.86120020121336,-0.6565085124785534,0.6481713723046422,0.3858370822873061,-0.0004371497827588908
2.8731767606735232,-9.050685837864876,2.818084587156773,-0.6083375991552167,0.745758555540884,0.11398793349134526,0.2465284837701596
2.818084587156773,-9.100987679958344,2.8635955131053925,-0.4708751686571748,0.7339640179468974,-0.17457906710898988,0.45726966357793586
2.8061080276966095,-9.10577830374241,2.8216774088144305,-0.26426199401890393,0.6145378426401641,-0.4375151449328695,0.6009070946782838
2.8204798990488054,-9.099790170192719,2.8013174039125444,-0.01888205110760483,0.4049944281006928,-0.6362127660807809,0.656396448519646
2.8540142655372622,-9.041104590296746,2.784550220668316,0.23503298287032123,0.1293110142009764,-0.7428190935609577,0.6133986899323077
2.8719789585471154,-9.03990708053112,2.797724289894104,0.4484401633166226,-0.15944668614680219,-0.7367027981361772,0.48036149035876186
2.894734567701817,-8.989605823159218,2.7953289780020714,0.5961038471779764,-0.4247613848332756,-0.6225900651603088,0.2768024206863375
2.936652379631996,-8.93571086704731,2.752213363945484,0.6563270508085469,-0.6277957386483993,-0.4171940569919737,0.03250279560966191
2.9677914342284204,-8.954873362183571,2.6971211904287338,0.6202060689561123,-0.7387419473193435,-0.15057996180800867,-0.21663435185290653
2.9522220531106,-9.04350019454956,2.704307126104832,0.49304110345074936,-0.7412817558359799,0.1381662204905066,-0.43396074049176725
2.9785704839229585,-9.063860199451447,2.6923305666446686,0.2879255713296452,-0.6312484147935978,0.4125045241736481,-0.5903086664884224
2.957012676894665,-9.092603942155838,2.7114930617809296,0.04466333973589324,-0.42966118342000653,0.6194362028053098,-0.6555114371236362
2.881560206115246,-9.13691706597805,2.747422740161419,-0.20508259856446223,-0.16490718980950803,0.7353896614003878,-0.6244587996181986
2.800119601786137,-9.162068279385567,2.7174814876914026,-0.4247022267422279,0.1240988447171123,0.7433206432482886,-0.5016990299582228
2.723469621241093,-9.13691706597805,2.7114930617809296,-0.5819490067754053,0.3948280291150233,0.6420484308622014,-0.3053194939168652
2.6791564974188806,-9.067453313469887,2.7510158541798595,-0.6537662755446594,0.6075898419042657,0.44644987657762614,-0.0640839190361849
2.718678997457028,-8.965652704238892,2.758201789855957,-0.6295726880905662,0.7310770733293127,0.1853091712519993,0.1866147215858454
2.797724289894104,-8.947687718868256,2.7366439828276636,-0.509030750106386,0.7462048395299727,-0.10986186364800954,0.41472449146869034
2.8588048893213274,-8.932118337750435,2.7558064779639246,-0.3154974924780393,0.6499453283700791,-0.3821604606750329,0.5761820759678543
2.874374270439148,-8.857863376736642,2.76059710174799,-0.07550869723977817,0.4581607186214514,-0.5983488434417755,0.6529669624914541
2.8647930228710177,-8.775225262641907,2.7126908639073375,0.17562639387487158,0.19903844225724135,-0.7266283496529733,0.6336799742448199
2.907908636927605,-8.782410905957223,2.639633705019951,0.40097926903350783,-0.08939992381420869,-0.7480817819821334,0.5211496204486802
2.91269926071167,-8.82911963403225,2.6635868239402773,0.5673494422545167,-0.36468849123174346,-0.6594425536953439,0.33204281819121895
2.9246758201718333,-8.92014148592949,2.765387725532055,0.6503365635329469,-0.5863358973967749,-0.4737104177079874,0.09418603777099871
2.955814874768257,-8.93571086704731,2.8516189536452297,0.6362011948497417,-0.723707368787876,-0.21164440841913942,-0.16340847107418524
3.0252789196372034,-8.887804629206657,2.8456305277347567,0.5278167677431604,-0.7501931719482762,0.07613523236410587,-0.3909259403572632
3.057615776360035,-8.863851510286331,2.869583646655083,0.34182965509140645,-0.6663159680035591,0.35279905541824486,-0.5609887201892426
3.0408485931158067,-8.903374595046044,2.9162923747301104,0.10561252854475962,-0.4843878321441499,0.5776077358000529,-0.648524267417195
3.0180929839611057,-8.889002723693848,2.946233627200127,-0.1461124244643466,-0.23125281510379944,0.7174678314683532,-0.6406350019565096
2.9917445531487465,-8.900978990793229,2.9438383153080943,-0.3763429940049403,0.05591266779834551,0.7518655896531395,-0.5384587816524179
3.0025236028432847,-8.928525223731995,2.8779673844575884,-0.5544518773230188,0.3410691286963536,0.6726685099435857,-0.35181250818236437
2.989349241256714,-9.003977694511414,2.9055133250355722,-0.6460895063265955,0.5691008674376015,0.4949652943311732,-0.11705515752875206
2.9414430034160617,-9.085418298840523,2.939047691524029,-0.6427446577077343,0.7133964866569741,0.24446910518190595,0.1348318004968111
2.951024250984192,-9.084220204353333,2.9594079887866975,-0.5449871386971338,0.7527489615362197,-0.041866466142669125,0.36688583861138435
2.9641986125707627,-9.060267085433006,2.9246758201718333,-0.3671709615976409,0.68146401993897,-0.3219816701266684,0.5450872210853269
2.942640805542469,-9.077034561038017,2.918687686622143,-0.13534817401373925,0.5100346917393954,-0.5548019532890796,0.6432264590640441
2.904315815269947,-9.047093308568002,2.989349241256714,0.11640302920635524,0.2636768240824119,-0.7060673883687978,0.6468336032670708
2.907908636927605,-9.03391894698143,2.9929423552751544,0.356285808134504,-0.028318645246913153,-0.7534111688805667,0.5519330465367525
2.946233627200127,-9.060267085433006,2.939047691524029,0.5378559903872178,-0.3095562799841316,-0.6875516273462443,0.3770392590440713
2.9641986125707627,-9.126138308644295,2.893536765575409,0.6403987335584933,-0.5452820001246669,-0.5206215919054498,0.14666342570169277
2.951024250984192,-9.060267085433006,2.856409577429295,0.6488025153032454,-0.7008084020509369,-0.27717870322569227,-0.10533207597459592
2.9210829985141755,-9.012360847592355,2.8204798990488054,0.5619078734087207,-0.7532454540736883,0.006946431299207279,-0.34180780390567117
2.9091064390540122,-8.942897095084192,2.8097008493542672,0.39249827789619207,-0.6949414492551639,0.28999137384718876,-0.5281159787867398
2.931861755847931,-8.906967124342918,2.804910225570202,0.16545304708111114,-0.5345270650523694,0.5303542630677984,-0.6368912478468268
2.9414430034160617,-8.890200233459472,2.8132939633727077,-0.09198915632261036,-0.289259572502379,0.695512389319491,-0.6512521870503686
2.9641986125707627,-8.83630586206913,2.846828329861164,-0.3300398292254215,-0.006388562735503788,0.7535246019382525,-0.5685363415515559
2.9677914342284204,-8.786004019975662,2.8647930228710177,-0.5195910233565698,0.2773937827060649,0.7008858782874057,-0.40228950195174745
2.9857564195990562,-8.739295291900635,2.8540142655372622,-0.63280595728918,0.5204615706457757,0.5453333973600505,-0.17688374607069443
3.0156976720690727,-8.717737777233124,2.7833524185419085,-0.6530265228466748,0.6870914118864277,0.3096862443121955,0.07453980315578829
2.96180330067873,-8.766841524839402,2.784550220668316,-0.5773042554384761,0.7528188377227272,0.028485416065736468,0.3149161400976311
2.91269926071167,-8.824329010248185,2.796526780128479,-0.4168018721125023,0.7079516687348896,-0.2569700493337836,0.5089666274760961
2.9103039488196374,-8.84588710963726,2.816886785030365,-0.1893012401341614,0.5544385392194695,-0.5097737980270068,0.6299949377232882
2.913897062838078,-8.862654000520706,2.8264680325984957,0.061127655109101155,0.32188892312364975,-0.6810918439323752,0.6548013676527844
2.9354548698663714,-8.867444624304772,2.8600023990869525,0.3025880790659662,0.04207551530323998,-0.7524159641839727,0.5835583280703294
2.951024250984192,-8.851875243186951,2.8899439439177517,0.49963013523471733,-0.24387248439221512,-0.7132767012126189,0.42676959454599317
2.946233627200127,-8.878223381638527,2.8983273893594745,0.6233981840197502,-0.49404406487589203,-0.5694502585175945,0.20741641496281804
2.9546173650026324,-8.894990857243538,2.9402454936504365,0.6557490177034455,-0.671711558678835,-0.3420594009155826,-0.04233407567774406
2.9821633055806163,-8.84468901515007,2.95821018666029,0.589157634856184,-0.7514402192797787,-0.057600620539829235,-0.29139843282497585
2.9857564195990562,-8.80756211936474,2.899525191485882,0.4365426815359392,-0.7177727086558877,0.22913108332303878,-0.4916622545624305
2.96180330067873,-8.813550252914428,2.8791648942232135,0.21981549305489564,-0.5788072954875453,0.4822776326918586,-0.6197350633202573
2.9091064390540122,-8.868642134070397,2.8635955131053925,-0.029128784046215793,-0.354940768796031,0.664656156156314,-0.6568110524876883
2.8839555180072787,-8.924932109713556,2.8791648942232135,-0.273788656328588,-0.07899302116196646,0.7495089647922968,-0.5975250504953505
2.8779673844575884,-8.990803332924843,2.8911414536833764,-0.47823792988253283,0.2084929657802626,0.7243829413812469,-0.4506534365537145
2.894734567701817,-8.957268966436386,2.8911414536833764,-0.6126012716565818,0.4653858477444778,0.5929883039625169,-0.23769847716708317
2.923478310406208,-8.975233951807022,2.8911414536833764,-0.6569945809688509,0.6574354169214395,0.36861112699580717,0.01620586960882045
2.9294664439558984,-8.987210218906403,2.946233627200127,-0.6030143981896604,0.7475393869811138,0.09445667834078457,0.26198556526016453
2.9474314293265342,-8.992000842690468,2.980965795814991,-0.460593337118859,0.7280450373794289,-0.1935584968375625,0.4694031419269394
2.9546173650026324,-8.977628971338273,2.994139865040779,-0.2505068818530387,0.6018346643070861,-0.4532042515283663,0.607986221372868
2.9737798601388934,-8.938106471300125,2.9821633055806163,-0.003554468919619571,0.38742753265467855,-0.6464197535897035,0.6572889584199895
2.9869539293646814,-9.025535209178924,2.955814874768257,0.24396205211964309,0.11616934961402266,-0.7448284110420419,0.6100965804201944
3.0121048504114154,-9.084220204353333,2.9342570677399635,0.4556905685091222,-0.17207460323832496,-0.7339159343414942,0.47339606885974217
3.032464855313301,-9.14649831354618,2.894734567701817,0.6030320926039698,-0.4407042718347367,-0.6112945477999583,0.2616314505298169
3.027674231529236,-9.086615808606147,2.994139865040779,0.6576854471862378,-0.6378335841483237,-0.40045832889012506,0.01585239144325952
3.0863595190644264,-8.974035857319832,3.0671970239281654,0.6159204787706006,-0.7413225110214601,-0.13091124481659944,-0.23226094046223072
3.1438470044732094,-8.875828362107278,3.085161716938019,0.483770962605589,-0.7360522687332647,0.15783029666664086,-0.44641047354021135
3.1689976331591607,-8.866247114539147,3.0827664050459864,0.2805448427627225,-0.6227880616710068,0.42344044961753013,-0.5950863862222137
3.1522304499149323,-8.990803332924843,3.0755804693698883,0.03613657542737435,-0.4181046530350159,0.6269357271087654,-0.6563796470804487
3.0791735833883287,-9.055476461648942,3.1210913953185084,-0.21935483962058108,-0.14520771899955445,0.7398613741509321,-0.6191957038913223
3.0755804693698883,-8.997988976240158,3.109114835858345,-0.436533772348933,0.14321915590218137,0.7402607091339386,-0.4908570275487506
3.095940766632557,-8.960862080454827,3.080371093153954,-0.5896442033818703,0.4106185504024858,0.6319563493134225,-0.2904191661133476
3.122289197444916,-8.951280832886697,3.070789845585823,-0.6562299853456888,0.6176412819315905,0.43086270319003117,-0.047315792151012524
3.1127079498767856,-8.988407728672028,3.095940766632557,-0.6265132006314597,0.733925124658546,0.16656668949857995,0.20270830959520586
3.110312637984753,-8.996791466474534,3.19893917798996,-0.5048487311049699,0.7424699251342135,-0.12215842608152086,0.42301712484269816
3.10432421207428,-8.945292114615441,3.2516360396146777,-0.309032687012791,0.6420971925925344,-0.39290199752810506,0.5812383452258333
3.1582188758254053,-8.841096485853196,3.210915737450123,-0.06160624417296928,0.4420547849404696,-0.6100590320159199,0.6546909310857563
3.2025319996476176,-8.790794643759728,3.099533588290215,0.18957480307325317,0.1807987346084419,-0.7317162566532712,0.6292571265810561
3.2204969850182534,-8.820735896229744,3.065999221801758,0.4129622378540823,-0.1069538171623866,-0.7459727702635016,0.5114173414407652
3.242054792046547,-8.893793347477914,3.1522304499149323,0.5757815159343821,-0.37898557835394264,-0.6506650950696408,0.3185600592761869
3.2911585396528245,-8.983617104887962,3.2408569899201396,0.6541641940430738,-0.5952711692132739,-0.4598663442133464,0.0790214388333303
3.3678085201978685,-9.041104590296746,3.1977413758635524,0.6366424560883409,-0.7241222858811731,-0.20176482201689103,-0.17211697996572511
3.3833781936764717,-9.116557061076165,3.2288804304599763,0.5258548173955774,-0.7467480776091203,0.08585304626846803,-0.3980870181949817
3.3282860201597217,-9.01475645184517,3.25043823748827,0.33261340145535817,-0.6566855767062753,0.36685072591497636,-0.5688171265124655
3.2839726039767267,-8.880618985891342,3.2348688563704493,0.09436942148476639,-0.47123630135930916,0.587063924537836,-0.6514496980397357
3.2779844704270364,-8.783609000444413,3.285170406103134,-0.157759607322069,-0.21678161687579844,0.7212296746439296,-0.6387060304203432
3.3282860201597217,-8.777620282173157,3.3690063223242763,-0.3868110261693654,0.06937793788984539,0.7497239271385725,-0.5324264877369191
3.413319446146488,-8.81594527244568,3.35104133695364,-0.5592648547349862,0.3453422287801421,0.6684573484442746,-0.3480320970690325
3.4971553623676304,-8.799178381562234,3.307925722897053,-0.6497640804362593,0.5706993512385345,0.4893599895187601,-0.11240858921335616
3.54266628831625,-8.777620282173157,3.2540313515067103,-0.6435046324450756,0.7146753811460228,0.23207156823448424,0.1458892553367189
3.5199109715223313,-8.799178381562234,3.313914148807526,-0.5418318385327102,0.749315959847477,-0.05403244371010406,0.37686117616017656
3.4684116196632386,-8.75127214372158,3.422900693714619,-0.3605172328599992,0.6740164146703713,-0.3322516076803949,0.5525740373557738
3.5067366099357606,-8.660250291824342,3.4624234861135483,-0.12616285496128507,0.49975236515150817,-0.5616645730362756,0.6471965813796218
3.573805342912674,-8.619529697299004,3.5055391001701355,0.1268440921741388,0.25197717342924103,-0.7085928859425153,0.6467721409760832
3.6408740758895877,-8.606355920433998,3.5630265855789185,0.3612726744163617,-0.032877792722995826,-0.7513247372259394,0.5512823638554806
3.657641259133816,-8.510543444752694,3.579793768823147,0.5426457597141804,-0.31297535124331577,-0.6835338565074337,0.3746511390432681
3.6432693877816202,-8.505752820968628,3.534282842874527,0.6454089755323242,-0.5518336785536495,-0.5100876590429327,0.1368847164893292
3.547456912100315,-8.55246096432209,3.4887719169259075,0.6498489519564051,-0.7031214984391444,-0.26438490124592473,-0.11583230148381203
3.4815859812498093,-8.52491531610489,3.44565630286932,0.5587588434385143,-0.7508811797116364,0.020246645021614555,-0.3515054511661004
3.433679743409157,-8.484194721579552,3.4217031839489938,0.3855809320100541,-0.6880947438479956,0.30184299135483295,-0.5354846187604136
3.489969426691532,-8.378800998330117,3.446853812634945,0.15577101676302713,-0.5240628708848045,0.5388928044984842,-0.6408494698104602
3.584584392607212,-8.238675398826599,3.4863766050338745,-0.09704621542365352,-0.2829431196592376,0.6965955848632613,-0.6521348129477947
3.6875828039646152,-8.054236090779305,3.534282842874527,-0.33575687319913616,-0.0002674758474725926,0.7517881507069042,-0.5675225343657319
3.745070289373398,-7.902134224176407,3.5857819023728372,-0.5288470439607088,0.288958075511697,0.6937897869812111,-0.39430922658639656
3.776209343969822,-7.911715471744538,3.6396765661239625,-0.6388520646479179,0.5287916700095445,0.5335158745853424,-0.16615721708384096
3.760639670491219,-7.9668073529005055,3.6528506353497505,-0.6546435177106973,0.6908020188237258,0.2945406654391844,0.08648833395939223
3.7774068537354473,-8.005132343173027,3.5714100310206414,-0.5738720282969322,0.7509872297888693,0.012024121327888406,0.32641154443232756
3.7378843536973,-8.007527947425842,3.541468778550625,-0.40849560026222564,0.700316719052926,-0.27237599772754234,0.5181690394487833
3.674408442378044,-8.003934833407403,3.6049443975090982,-0.1830192619600649,0.5461984766203253,-0.5166045922530648,0.6334752316801925
3.713931234776974,-7.95004046201706,3.622909382879734,0.06941117306521202,0.31138807356777687,-0.6845222076300473,0.6554760895370223
3.7786046558618547,-7.940459214448929,3.6348859423398974,0.31698414632840094,0.02361728992275732,-0.7516423451846251,0.5779247870774502
3.8049530866742134,-7.821891129612923,3.699559363424778,0.5118060092435384,-0.26138335366469345,-0.7048027488469819,0.4159163816765807
3.8241155818104744,-7.721288030147553,3.7306984180212024,0.6311321948433465,-0.5078109578298005,-0.5538242541644475,0.19255876827450427
3.8504640126228336,-7.674579302072526,3.7486631110310555,0.6573650229921729,-0.679206370173263,-0.32100850290103583,-0.059190153976789346
3.8624405720829964,-7.694939306974411,3.78339527964592,0.5866155635767655,-0.7502598181017812,-0.040648870248959044,-0.3022251731058803
3.904358384013176,-7.693741797208786,3.8157318440079693,0.42922184790492157,-0.7104206833395456,0.24581981231709757,-0.5006432640482088
3.9857989883422853,-7.6542192971706395,3.8324990272521973,0.20247070649451515,-0.5609645887319399,0.5012584367801682,-0.6269484211297763
4.0756233304739,-7.5775693166255955,3.852859324514866,-0.049617231065445515,-0.330738038979573,0.6759665632010922,-0.656673195271018
4.154668622910977,-7.560801841020584,3.875614641308785,-0.2943976443197647,-0.051518982768830435,0.7506651082672874,-0.589217885559748
4.178621741831303,-7.662603034973145,3.9079514980316166,-0.495598317537023,0.23550450865734032,0.7142183800044574,-0.4345250737533398
4.152273311018944,-7.771589287519455,4.004961483478547,-0.6233511592756836,0.48778704009431795,0.5718588852563486,-0.21557957022652158
4.1283201920986174,-7.806321748495102,4.0756233304739,-0.6587926201540871,0.6677915506796076,0.34469050441966137,0.03514519361672388
4.17263331592083,-7.777578005790711,4.048077097535134,-0.5967449403305224,0.7488214194704285,0.06641594161876099,0.28062587306074804
4.237306737005711,-7.7799730253219606,4.0313099142909055,-0.44185099909643694,0.7168517259386394,-0.22835873534558276,0.4886139433209416
4.293596712648869,-7.7536248868703845,4.068437394797802,-0.22435286238467564,0.5779915348269467,-0.4822940739857136,0.6188570149933315
4.3738395148515705,-7.803926144242287,4.157063934803009,0.02630625690566373,0.35345602376513463,-0.6648073260547348,0.6575774017830199
4.4325248023867605,-7.827879263162614,4.22173735588789,0.2730429421593522,0.07658714663783255,-0.7488661870229365,0.5989836347017907
4.551092594861984,-7.820693619847298,4.187005187273026,0.4794355866221576,-0.21165385565629682,-0.7220503593465438,0.4516496897304568
4.6109753921628,-7.819495525360108,4.200179548859596,0.6148382967694228,-0.4686076600184699,-0.5882266112488096,0.23742405863018867
4.636126313209534,-7.85901861011982,4.310363895893097,0.6591752275801549,-0.656155119786251,-0.3671614287766056,-0.01187279839225617
4.678044125139714,-7.891354882121086,4.400187945663929,0.603344425020757,-0.7473856615500757,-0.08473332009445739,-0.26497253097537876
4.7511012840271,-7.909319867491723,4.339107638597489,0.458325797851079,-0.7244484338781276,0.204090548124457,-0.4727144781387162
4.810984081327915,-7.899738619923592,4.239702048897743,0.24530448448760228,-0.5942219599755578,0.46274779056636967,-0.6104018795015473
4.803798145651817,-7.926087343096733,4.1822145634889605,-0.00406226336523557,-0.375933892069111,0.6529083960798394,-0.6575468296163955
4.781042536497116,-8.006329852938652,4.215748929977417,-0.25271680982581074,-0.10194471491154079,0.7463344344847705,-0.607228458683688
4.804995655417443,-8.091363571286202,4.266050479710103,-0.46390214346704467,0.18712735089073373,0.7291939224668376,-0.4669629313689957
4.840925333797932,-8.088968551754952,4.31874734133482,-0.6086625483728062,0.45403763852645707,0.5999465015241093,-0.25188076607518384
4.843320645689965,-7.9823767340183265,4.336712326705456,-0.6590328851843479,0.6468824186698857,0.38367119659965393,-0.0038994308793291184
4.827751264572144,-7.970400466918946,4.291201400756836,-0.6118438292006385,0.744018202913633,0.11067687807141904,0.24461126519976975
4.777449714839459,-8.032678576111794,4.2564692321419715,-0.4741941865320438,0.7311093021305693,-0.17859266234557175,0.4568629146184724
4.737926922440529,-8.020701724290848,4.260062346160412,-0.2665256299281067,0.610188373557733,-0.44133881354668003,0.6015432561533736
4.743915348351002,-7.939261119961739,4.272038905620575,-0.019468558488038263,0.39920752288785116,-0.638875707652903,0.6573371730483116
4.818170017004014,-7.848239268064499,4.242097360789776,0.23047373247387035,0.12942342768225742,-0.7420659241882638,0.6160110381845088
4.879250324070454,-7.863809233903885,4.230120801329613,0.45085510722100525,-0.16622450988525955,-0.7343069929011046,0.4794708800153334
4.9127849829196935,-7.821891129612923,4.290003598630428,0.5990565962408756,-0.43041520931194555,-0.6169321482606485,0.2743513559940097
4.913982492685318,-7.802728634476662,4.337909836471081,0.65882860784251,-0.6310548702849871,-0.4085162230526168,0.0287942994483812
4.891226883530617,-7.806321748495102,4.388211386203766,0.6213824691461376,-0.7385975054067724,-0.13977289070418464,-0.22095495257843442
4.9163775122165685,-7.934470496177673,4.327131079137326,0.4922963126438319,-0.73717010674799,0.14956578744935498,-0.4380121567937331
4.913982492685318,-8.020701724290848,4.378630138635636,0.29071933393163435,-0.6270281750572,0.4167943946773487,-0.5904238893611324
4.918773116469383,-7.96201672911644,4.3965951240062715,0.046279839891151885,-0.424502250962408,0.6225998363948698,-0.6557632645006729
4.964283750057221,-7.868599857687951,4.366653579175472,-0.21072654809416708,-0.15269068161241117,0.7381626501843295,-0.6224112623899901
4.957098106741905,-7.8793786150217064,4.290003598630428,-0.4305699352113122,0.1358451806806897,0.7409800688261662,-0.49709572054115225
4.890029373764992,-7.932075476646424,4.25766703426838,-0.5869206246985216,0.4043796399679404,0.6346831979267186,-0.29862773707813856
4.818170017004014,-7.976388600468636,4.299584846198559,-0.6568631918372185,0.6133304044587721,0.43494437751209314,-0.056391051120529896
4.748705972135067,-8.097351704835893,4.444501361846924,-0.6302523767749295,0.7320406616689882,0.17114104750816597,0.193930794590725
4.712776293754578,-8.091363571286202,4.551092594861984,-0.5110945785191627,0.7431088807529181,-0.11779400898950186,0.41556719625187677
4.783437848389149,-8.181187913417817,4.433722312152386,-0.3170798223482358,0.6450118627150339,-0.38926584763537514,0.5761008445413065
4.676846615374089,-8.323709117174149,4.401385747790337,-0.07080655487526229,0.4466777407631272,-0.6077629874491505,0.6527553743787398
4.454082609415055,-8.181187913417817,4.451687297523022,0.18024346348640383,0.18650107205966024,-0.7312101768914133,0.6309210102710567
4.3714442029595375,-7.795542406439782,4.449291985630989,0.4048523681257498,-0.10085720759192995,-0.747819855017936,0.5164182879611101
4.420548242926598,-7.530860588550568,4.379827940762043,0.5700737182097092,-0.3734508418223755,-0.6552457745273257,0.32588863053626344
4.452884807288647,-7.352409998774529,4.383420762419701,0.6515122520669361,-0.5915469407952747,-0.4668899680397994,0.0872797799390897
4.401385747790337,-7.623079950213433,4.438512935936451,0.637201507480942,-0.7231664878479279,-0.21003299102969353,-0.16398357355792792
4.365456069409848,-8.007527947425842,4.4349201142787935,0.525733345529532,-0.7482322962573702,0.08445313473642183,-0.3957531405673748
4.478035728335381,-8.218315393924714,4.339107638597489,0.3389737247139989,-0.6618105650285123,0.3597161109209444,-0.5636558431472792
4.359467643499374,-8.17040915608406,4.279224841296673,0.1027341929109997,-0.4785533533667571,0.5824286324952233,-0.6490063648671727
4.236109227240086,-7.742845544815064,4.161854558587074,-0.14846643444203095,-0.22542109536913468,0.7200019780418865,-0.6393279277666668
4.170238004028797,-7.591941187977791,3.9905896121263504,-0.37787381867511477,0.060678811572047534,0.7524137110564618,-0.5360998660700574
4.125924880206585,-7.746438658833504,4.02053115695715,-0.5519059469207834,0.33807412823800304,0.6748156157873627,-0.3545836914736915
4.049274899661541,-7.9440517437458045,4.190598301291466,-0.645189650887164,0.5661860178412575,0.498396790232306,-0.1215086296330169
4.097181137502194,-7.746438658833504,4.151075508892537,-0.6428147447793002,0.7138829112871661,0.24259385064257286,0.13530933632566722
4.181017053723336,-7.584754959940911,4.025321780741215,-0.5455256696504658,0.7525120968054037,-0.04345765706681701,0.36638602587463487
4.015740533173084,-7.8793786150217064,4.104367073178292,-0.3687343799811544,0.6811286034376893,-0.32329048868070676,0.5436745741043318
3.9462764883041386,-8.166816042065621,4.044484275877476,-0.13816057003850893,0.5103281684017219,-0.5558856668662133,0.641457670306532
3.894777136445046,-8.288976656198502,3.833696829378605,0.11253599878970091,0.2651717378089264,-0.7072057759472983,0.645662132164012
3.7426749774813652,-8.054236090779305,3.8744171315431597,0.34680008223583403,-0.018776390341672628,-0.7553095076760293,0.5557739628132554
3.592967838048935,-7.685358059406281,4.0756233304739,0.5303770861063664,-0.3001364745646296,-0.6932100007008769,0.384809222989166
3.6911756256222725,-7.506907469630241,4.12712238997221,0.6378862163290641,-0.5426060473593948,-0.5250415720942215,0.1516944295590091
3.808545908331871,-7.65781241118908,4.122331766188145,0.6487370766220751,-0.6995236913279942,-0.2829612211531744,-0.0986902123323545
3.8576499482989313,-8.015911100506782,3.9917874142527583,0.5645607636387702,-0.7545094987872434,0.00045028980235164496,-0.3346436278170039
3.840882765054703,-8.375207884311676,3.795371839106083,0.397722217132092,-0.6994463848369636,0.2838249821655503,-0.5215699111689249
3.6528506353497505,-8.370417260527612,3.8516615223884583,0.17269901915794622,-0.542189776411082,0.5259344573071634,-0.6321378344587548
3.5510500261187556,-8.148851056694985,3.776209343969822,-0.07754844459826979,-0.3056910646938146,0.6912960439284351,-0.6501145986329228
3.530689728856087,-8.203943522572517,3.7247099921107294,-0.3216780211792785,-0.01748441765098822,0.7557663522838125,-0.5701182040465027
3.515120347738266,-8.399161003232003,3.808545908331871,-0.5127795901728478,0.2669654769432898,0.7067494346982843,-0.4077888700985641
