3.905556186139584,-8.15364168047905,2.5270540460944177,0.3381804813735094,-0.6610648016181102,0.3534973253140931,-0.5689173323738452
3.785790591537953,-8.15364168047905,2.358184557706118,0.09698307444276079,-0.471414920269502,0.5823243218404148,-0.6551798534845451
3.6336881402134895,-8.575216573476792,2.256383802294731,-0.15303248172613673,-0.21569010623207444,0.7195900085210009,-0.6420662405446046
3.565421897470951,-9.12853391289711,2.3462079982459545,-0.3803558935416347,0.07189034651237915,0.7511211017415039,-0.5347693548111223
3.5199109715223313,-9.389622616767884,2.600111204981804,-0.551824758402315,0.34905005126684396,0.6721800090097759,-0.3490380111283836
3.489969426691532,-9.273450136184692,2.800119601786137,-0.6422250307707791,0.5748947891809894,0.49444136307335135,-0.11211926554425886
3.510329723954201,-9.059069575667381,2.881560206115246,-0.6383410308734183,0.7162241578184048,0.24412632801458803,0.14123037927759088
3.547456912100315,-9.027930813431741,2.936652379631996,-0.5373020897736861,0.7519425335064464,-0.04882780207723442,0.3788201900282548
3.569014719128609,-9.10577830374241,3.019290786087513,-0.35873643126089283,0.6752226458523397,-0.3279516450308561,0.5548245397744407
3.595363149940968,-9.180032680034637,3.008511736392975,-0.12736615549977837,0.4996649031335455,-0.5589882736432491,0.6493419414600377
3.7235124823451042,-9.30698450267315,2.8444330179691315,0.12292147584448744,0.251006874660706,-0.7081022948860417,0.6484419786121184
3.822917779684067,-9.314170145988465,2.6827493190765384,0.3554120344797303,-0.03436741216426049,-0.7534621321862094,0.5520833108232145
3.7247099921107294,-8.902176500558854,2.700714304447174,0.5359067816813063,-0.31474255927859435,-0.6883711090310852,0.37401371495983815
3.576200654804707,-7.8793786150217064,2.6504127547144893,0.6372786143410774,-0.5488971453808305,-0.5224594456726533,0.14008575631988993
3.3821803915500643,-7.930877966880799,2.5522049671411517,0.6432157207650233,-0.7050279432379086,-0.273284109519985,-0.12051942290902638
3.2588219752907754,-9.12853391289711,2.7869455325603485,0.5533224191785293,-0.7526201398411988,0.01134661833223658,-0.3567470809863156
3.2516360396146777,-10.317806121110916,3.1390563806891443,0.3825389449369465,-0.689417482240888,0.2941545847570213,-0.5402227050518954
3.3366694656014446,-10.536977305412293,3.2085204255580906,0.15599393883558393,-0.5249469293351591,0.5333213223423687,-0.64472085398499
3.426493807733059,-9.964497470855713,2.931861755847931,-0.09318584220434634,-0.2836145167669529,0.6938592207956465,-0.6553156387639263
3.4348772531747818,-9.193207041621209,2.618075897991657,-0.32885522438924264,-0.0010050181540455982,0.7526377619984893,-0.5704293387829174
3.4217031839489938,-8.563240306377411,2.453997179567814,-0.516740785196214,0.2815962060839906,0.70154146472947,-0.4018981349784207
3.432481941282749,-8.030282971858979,2.3689634612202646,-0.6305193691077733,0.5280587497325829,0.5435423073948761,-0.1678125206373191
3.541468778550625,-7.75841551065445,2.2240470917522908,-0.647761993766363,0.6910955833425056,0.3086892036007563,0.086615643486837
3.683989689946175,-8.07579419016838,2.01325964525342,-0.5693467960232973,0.7530793090176474,0.028362390175887098,0.3284986377612844
3.7738140320777895,-8.671029049158097,1.8695409317314626,-0.4069119081983897,0.7043995237271465,-0.256413458907072,0.5220116359149725
3.764232784509659,-9.103382699489593,1.7569612728059292,-0.18435959531608165,0.5518214110646158,-0.5035890344534283,0.6386726503333384
3.6480600115656854,-9.291415121555328,1.7497753371298315,0.0653421356434324,0.3175810273380676,-0.6764429798969791,0.6612848034943402
3.495957852602005,-9.273450136184692,1.7988792309165003,0.31059300528936845,0.029302362003002912,-0.749627998468139,0.5837218691800188
3.395354753136635,-9.197997665405273,1.8994823303818704,0.5039678784968864,-0.25702255826283366,-0.7088035903068188,0.4213706828382097
3.3929594412446025,-9.077034561038017,1.9821205906569959,0.6232720680408272,-0.5052899176497572,-0.5632159770410091,0.19748871240492089
3.4744000455737116,-9.098592075705529,2.0539799474179747,0.6510542671408442,-0.6790984314950161,-0.3345189115229055,-0.055233680053366416
3.5127250358462336,-9.236322655677796,2.170152574181557,0.5831062655008653,-0.7529698431171605,-0.05636991426353123,-0.2997431087709528
3.4624234861135483,-9.23752016544342,2.270755673646927,0.42928016329397595,-0.7159886384125429,0.23021043914098854,-0.5000819580598399
3.3630178964138033,-9.003977694511414,2.3342314387857916,0.21210054945013776,-0.5735298961940022,0.4829872225913429,-0.6267377106159702
3.281577292084694,-8.73450466811657,2.331836126893759,-0.04234262600075022,-0.34035808203565243,0.667826242271446,-0.6605842778555757
3.2528335493803024,-8.688994034528733,2.4132767312228682,-0.2845325753005196,-0.06151629579443963,0.7487645109787214,-0.5954902736765575
3.2672054207324983,-8.892595252990724,2.637238393127918,-0.484708665630535,0.22643959467545977,0.7192293388158311,-0.4432739306708913
3.29954227745533,-9.180032680034637,2.7905383542180062,-0.6136742802019157,0.48089989798362437,0.583806094819275,-0.2265162457526344
3.4696094217896465,-9.073441447019578,2.646819640696049,-0.6527012545921019,0.6646426278659262,0.3628821052349879,0.02340570822674194
3.856452146172524,-8.379998508095742,2.246802554726601,-0.5958484286129924,0.7509080609964115,0.08900727144750656,0.27051698593527723
3.9342999288439753,-7.896145505905152,1.9102612338960172,-0.45093504062737366,0.7271102742372166,-0.1980617811984858,0.47826746602873954
3.7426749774813652,-8.108131046891213,1.9881088703870775,-0.23378388253547383,0.5918705975881237,-0.46188058797000914,0.6178192409061051
3.4935625407099726,-8.316522889137268,2.1461994552612307,0.01331250504760985,0.3711230872161798,-0.6509764996304251,0.6620574206769442
3.371401634216309,-8.402754117250442,2.2264424036443233,0.258212207223782,0.09576430115203842,-0.7439551309543094,0.608840223533433
3.4001453769207,-8.438684087991716,2.216861156076193,0.4650552853564446,-0.19355642731972936,-0.7272523021647168,0.46622267212285773
3.464818798005581,-8.620727791786194,2.3150689436495306,0.6035978712463048,-0.45425801854882814,-0.603401593153714,0.25539338243302495
3.5211084812879565,-8.82313150048256,2.566576838493347,0.6537001575543763,-0.6480738964521793,-0.3906721082999703,0.007185579108880728
3.575003145039082,-8.897385876774788,2.8348517704010012,0.6079373904655524,-0.7465110954514889,-0.12043419379150433,-0.24213409220418125
3.5258991050720216,-8.783609000444413,2.980965795814991,0.46842786372618583,-0.7336714221195695,0.17432725318963319,-0.46033855980715743
3.4732022434473038,-8.581204707026481,2.8707814487814907,0.2620646930960984,-0.6119737572295667,0.43673994760214824,-0.6050358958468893
3.4552375504374506,-8.706959019899369,2.6444243288040163,0.017033502441080935,-0.40026903109121753,0.6350904100216587,-0.6604201190472693
3.3977500650286676,-9.078232070803642,2.5773555958271026,-0.23040346140278212,-0.12960926164682918,0.7400581506966005,-0.6184089406343575
3.361820386648178,-9.41118071615696,2.6456221309304238,-0.4438570797720806,0.16008709587068135,0.7361152867446544,-0.4852806395197808
3.419307872056961,-9.53094631075859,2.7414346066117288,-0.5919585221939306,0.42600819425124375,0.623889087995466,-0.2808282968522899
3.5175156596302988,-9.499806963801385,2.779759596884251,-0.6533323421369563,0.6330037611305459,0.41426917244703426,-0.029054119715991818
3.6480600115656854,-9.342913888692856,2.7749689731001856,-0.6163281160520155,0.7411522815034364,0.14775776762896606,0.22136077134697704
3.731895927786827,-9.104580793976783,2.7869455325603485,-0.48881300468923605,0.7405326242968459,-0.14033896987125696,0.4392929003912786
3.7582443585991863,-8.8542702627182,2.7414346066117288,-0.28932475784015077,0.631376856858959,-0.40780889621912936,0.592744762345628
3.765430294275284,-8.663843405842782,2.643226819038391,-0.0471807271378566,0.4297688008597424,-0.6154417993417749,0.6590175630567676
3.7690234082937244,-8.653064063787461,2.52346122443676,0.20188857969952817,0.16528609685631757,-0.7328631410704091,0.6283574810832803
3.7941740369796757,-8.736900272369386,2.461183115243912,0.4212946899972781,-0.12342721992878052,-0.742881597532244,0.5053745518016225
3.7977671509981157,-8.82911963403225,2.4504040655493737,0.5815771107820576,-0.39997183490539295,-0.6403990858109084,0.3027864039044028
3.7977671509981157,-8.885409609675408,2.416869699060917,0.6519441006634445,-0.6109776495075331,-0.4450715778938303,0.059887327236058704
3.7929765272140505,-8.906967124342918,2.40609079554677,0.6267442811124958,-0.7323966152369369,-0.18450782020578,-0.19168638022867054
3.7977671509981157,-8.872235248088836,2.415672043114901,0.5097207329735755,-0.7464881992910951,0.10305234593154963,-0.4151148716849634
3.7630349823832514,-8.827922124266625,2.415672043114901,0.31789999788440315,-0.6512462412390227,0.37557234873601225,-0.5777225419542292
3.72830310612917,-8.756062767505647,2.4719618725776673,0.0793072424589255,-0.46055432707511923,0.5931044759458168,-0.6556120451295746
3.6528506353497505,-8.776422772407532,2.543821229338646,-0.17102196871982622,-0.20231571863769585,0.7237193609558712,-0.6372206233204736
3.5965609520673754,-8.862654000520706,2.6552033784985545,-0.4011364781886987,0.09257964569835954,0.747409206746728,-0.5214384074259978
3.53667815476656,-8.905769614577293,2.695923680663109,-0.5665125698670602,0.36717628472193653,0.6594347185250544,-0.33074300616067015
3.5067366099357606,-8.874630852341653,2.646819640696049,-0.648652002613369,0.587908493248416,0.47462575566517967,-0.09134864602882925
3.4863766050338745,-8.837503371834755,2.5534024769067765,-0.6353841892825921,0.7223213170395711,0.22010184383805653,0.16153645192033322
3.480388179123402,-8.851875243186951,2.4875315460562706,-0.5286571252911729,0.7506124787915405,-0.06674691124815844,0.3907011650867227
3.461225683987141,-8.869840228557587,2.4504040655493737,-0.34407702580526756,0.6685990190775528,-0.343824123293868,0.5624689540256763
3.432481941282749,-8.81594527244568,2.4300439144670967,-0.10271418030507068,0.4830087095145491,-0.5748709404340183,0.652438338497865
3.432481941282749,-8.820735896229744,2.434834538251162,0.1485700210124976,0.2295420395876101,-0.715110325970494,0.643315336836205
3.4061335104703905,-8.874630852341653,2.42884625852108,0.37802222218242026,-0.057768672471099757,-0.7500957220263769,0.5395538785097556
3.4049360007047653,-8.909362728595735,2.3833353325724604,0.5518445385320548,-0.3365186460633972,-0.6746479288416332,0.35647296987807653
3.4360750553011896,-8.971640837788582,2.358184557706118,0.64457082494708,-0.5657205559398101,-0.4998362044687863,0.12104739946166018
3.45164443641901,-9.006372714042664,2.309080663919449,0.6425885528589684,-0.7116287317942274,-0.25143110636527227,-0.13208670853455176
3.4732022434473038,-9.009965828061103,2.3006970722973348,0.5462685266450158,-0.7527827674327296,0.03395509371596161,-0.3657264735620662
3.466016307771206,-8.957268966436386,2.2923134806752206,0.36466154558693775,-0.6802717466412427,0.3206576117950472,-0.5490273252668899
3.464818798005581,-8.880618985891342,2.2623720820248128,0.13299190992948504,-0.5080620048470935,0.5531989333880359,-0.6466506717095398
3.464818798005581,-8.849479638934136,2.2204541239142417,-0.11812274703609767,-0.2612508193249933,0.7043844938552773,-0.6493362078699375
3.5019459861516955,-8.81594527244568,2.1725478860735894,-0.3519180438534728,0.023897741135746386,0.7520754383202086,-0.5567451153395242
3.54625940233469,-8.765644015073777,2.125839304178953,-0.5340774629445465,0.3054884061305782,0.689310308928753,-0.38247796707661824
3.579793768823147,-8.752469653487205,2.077933066338301,-0.6378439565875069,0.5422986065646754,0.5253060378585996,-0.15205549957862646
3.5857819023728372,-8.802771495580673,2.0994908733665945,-0.647934912300604,0.6995314941302052,0.2840826505531375,0.10066322961576114
3.572607833147049,-8.867444624304772,2.197698660939932,-0.5596488552924268,0.7540319344642171,-0.005885539406786771,0.3437940677264777
3.54625940233469,-8.867444624304772,2.2587791141867637,-0.3901251837538279,0.6951526972791693,-0.2886180270561143,0.5303439477591629
3.553445338010788,-8.847084619402885,2.213268188238144,-0.16322171277364741,0.5342012509392929,-0.5289693937711376,0.6388889390398981
3.6061421996355056,-8.889002723693848,2.162966638505459,0.08764259974045173,0.294827213128938,-0.6915802132160335,0.6535384440087854
3.6636296850442887,-8.957268966436386,2.1461994552612307,0.3256750460843645,0.012135373637165495,-0.7525618801794893,0.5722229579153089
3.6827921801805497,-8.977628971338273,2.1426064874231816,0.5158866506176328,-0.2722918318532361,-0.7029576709948386,0.40690125928785464
3.694768739640713,-8.987210218906403,2.1569783587753775,0.6303585073071526,-0.5167491951198782,-0.5500559124713698,0.18181560649115164
3.683989689946175,-9.006372714042664,2.2156635001301765,0.6515186395202628,-0.6882097685374059,-0.31001815038917846,-0.07602317591780117
3.6732109326124194,-8.982419595122337,2.2539884904026986,0.57540882730547,-0.7534744287106007,-0.029189883356372254,-0.31674740322190353
3.6851874920725822,-8.932118337750435,2.236023651212454,0.4147231883091107,-0.7081105719731958,0.25592938104042506,-0.5109640367567803
3.6851874920725822,-8.899781481027604,2.232430683374405,0.19306496824677227,-0.5587696302494651,0.5034476997032327,-0.6301133485415721
3.7067452991008762,-8.91654837191105,2.2623720820248128,-0.05696614110693674,-0.32741570611036164,0.6769666104305374,-0.6567115215388161
3.715128744542599,-8.965652704238892,2.2491978666186334,-0.29868791188060634,-0.048020378849604674,0.751052039097624,-0.5868563785789881
3.7438724872469904,-9.007570223808289,2.2036869406700137,-0.5005255403631925,0.24494754081896397,0.7126915543290814,-0.4260817223008683
3.733093729913235,-9.017151471376419,2.194105693101883,-0.62350319548618,0.4950209457385043,0.5691583040890412,-0.20556471824018177
3.694768739640713,-9.002779600024224,2.2204541239142417,-0.6548961913842809,0.6724060688435908,0.34197043938164545,0.04513619037752001
3.6720131304860115,-9.02673271894455,2.25997677013278,-0.5901154161615862,0.7509940116321412,0.06456005444076106,0.28914319890273615
3.689978115856648,-9.062662689685823,2.298301760405302,-0.43872129334670745,0.7192488217229247,-0.2223237127350884,0.4906902546108516
3.7103381207585335,-9.057872065901757,2.313871287703514,-0.22292792556057195,0.5818889674214918,-0.4765203841662902,0.62019085213539
3.7211171704530717,-9.03032583296299,2.2767439533770086,0.02563184186166099,0.3591813825728,-0.6607251319267475,0.6586152466624597
3.722314680218697,-9.027930813431741,2.2264424036443233,0.2760543851708148,0.07686992068878705,-0.7487553435287573,0.5977042975070496
3.7067452991008762,-9.077034561038017,2.212070532292128,0.47988742206649115,-0.21060542594062215,-0.7234995903401041,0.4493347966543968
3.6205140709877015,-9.097394565939904,2.2156635001301765,0.6132314736094715,-0.4672258446667974,-0.592016929061655,0.23486831534832647
3.560631273686886,-9.072243937253953,2.1042814971506596,0.6564162481469392,-0.6552265990223072,-0.3736215593256106,-0.014238802950247442
3.504341298043728,-9.102185189723969,2.004876053631306,0.6030784742818935,-0.746958064254375,-0.10034968533374282,-0.2613043144622746
3.4983531644940378,-9.13691706597805,2.0180502690374853,0.4610673163069132,-0.7288520890948232,0.18775562835767864,-0.47004189821298503
3.503143788278103,-9.087813318371774,2.08152603417635,0.2512710688952731,-0.6034649010760923,0.4482322034462832,-0.609738349539488
3.537875664532185,-9.038709570765496,2.1366182076931,-0.0015823496809603968,-0.3833278193205328,0.6462810759724045,-0.6598318345945451
3.580991278588772,-8.992000842690468,2.1461994552612307,-0.24855719471326626,-0.11098064466399761,0.7435485113994078,-0.6107685557246375
3.6013515758514405,-8.918943976163865,2.097095561474562,-0.45899918159232955,0.17759804227897288,0.7314287341831172,-0.4720070905055674
3.6049443975090982,-8.81714336693287,2.0455963557958605,-0.6020102301163887,0.44009117811975557,0.6117908155576999,-0.26384737212188164
3.5965609520673754,-8.70336590588093,2.025236204713583,-0.6564742237703536,0.6379451069142594,0.4022226577090799,-0.016869134972193285
3.5965609520673754,-8.575216573476792,2.0455963557958605,-0.6143757026669596,0.7420473600345907,0.1335458440470851,0.23253756465553163
3.619316268861294,-8.521322202086449,2.0372127641737463,-0.47767405897363513,0.735713171486207,-0.16153001513168783,0.4521743877055798
3.664827194809914,-8.563240306377411,2.001283085793257,-0.27293378172692073,0.6201123012367155,-0.4260096559039456,0.5995695603712288
3.7115359228849414,-8.577612177729607,1.99050418227911,-0.028066794910452605,0.41350906484942107,-0.6279039291463965,0.6587557696698593
3.7378843536973,-8.564437816143036,2.009666677415371,0.22096510072180975,0.14617210521213347,-0.7376299447282911,0.6210557177588752
3.751058422923088,-8.56204221189022,2.0563752593100073,0.4374824226339412,-0.1426171978019747,-0.739026914248784,0.4920454092798454
3.7486631110310555,-8.563240306377411,2.121048680394888,0.5896951001459066,-0.41051453639481605,-0.6318570419695115,0.29067883099048897
3.7378843536973,-8.563240306377411,2.202489284723997,0.6551895798179241,-0.6181299743539277,-0.43182447951632175,0.046578623784762546
3.7067452991008762,-8.568030930161477,2.2719533295929435,0.6223558717097508,-0.7364888112606287,-0.16153509742443603,-0.21015187873626148
3.694768739640713,-8.615937168002128,2.3222548793256284,0.4977301512681426,-0.7425661467474793,0.12686983872635849,-0.42984213177018893
3.6827921801805497,-8.704563415646554,2.3929165801405907,0.30002936586151996,-0.6394341559313375,0.3966703695131977,-0.5863096091651367
3.6780015563964845,-8.729714044332505,2.4456134417653086,0.05834611923473218,-0.4422904287629114,0.6081308770101395,-0.6566214612863678
3.712733432650566,-8.727319024801254,2.434834538251162,-0.19187608043097878,-0.18013204335515862,0.7301708934832234,-0.6305445924159933
3.7295006158947945,-8.811154648661613,2.4036954836547375,-0.41385700755679744,0.10845012820517545,0.7448636195675511,-0.5119952492290729
3.745070289373398,-8.900978990793229,2.404893139600754,-0.57513275107112,0.38109208707030895,0.6500828531182261,-0.3184076379414096
3.7306984180212024,-8.91774646639824,2.4180673550069334,-0.6527038199780801,0.601970313429207,0.4543289828520376,-0.07207385432039295
3.7019546753168107,-8.938106471300125,2.4755549865961077,-0.631737899401982,0.728413297133938,0.19532794117188135,0.17935520738242
3.676803754270077,-8.957268966436386,2.5330424720048907,-0.5181174453461043,0.7479455127910652,-0.09238592102602898,0.404470844832986
3.6468625018000607,-8.970443328022958,2.5641815266013146,-0.3284752637498333,0.6577321231995983,-0.36652883558652266,0.570218438757827
3.6157234472036364,-9.04350019454956,2.5785533979535105,-0.09069105493054426,0.4710784091062699,-0.5868469045874539,0.6522813623012808
3.6097350212931634,-9.10817332327366,2.5725649720430375,0.1604030571205219,0.2153999198495459,-0.7210832201679394,0.638680454834368
3.5965609520673754,-9.151288937330246,2.5330424720048907,0.38793294654266225,-0.07172442048702635,-0.7495953253697617,0.5314795242305476
3.586979704499245,-9.181230774521827,2.4719618725776673,0.5617848012937984,-0.35438400344629606,-0.6651301949548937,0.34119149886233713
3.555840649902821,-9.21835767030716,2.3881259563565256,0.6485360830288901,-0.5781280967194691,-0.48395809303344944,0.1046585733731159
3.5330850407481194,-9.192009531855584,2.25997677013278,0.6403574320022876,-0.7172189920172256,-0.23210300405582487,-0.1471987509372697
3.503143788278103,-9.090208922624589,2.189315069317818,0.5384639481259004,-0.751395163085745,0.0536631455483258,-0.3776005194247931
3.489969426691532,-8.975233951807022,2.1761408539116385,0.35776251197024,-0.6756473712169768,0.33154120710032287,-0.5527992789347626
3.4947600504755973,-8.914153352379799,2.2491978666186334,0.12472785904698128,-0.5010689454967642,0.560871536795869,-0.6471444910130639
3.4971553623676304,-8.82552652001381,2.3545915898680687,-0.13259188797355206,-0.24669820007942217,0.7105012518099167,-0.645559726514692
3.5714100310206414,-8.809957138895989,2.3689634612202646,-0.36453364090028234,0.03849058681764447,0.7515497370649638,-0.5484584688889408
3.657641259133816,-8.911757748126984,2.304290040135384,-0.5431803521741402,0.3180322382358291,0.6826887798237253,-0.3711423316700466
3.689978115856648,-8.970443328022958,2.202489284723997,-0.6424083195394574,0.5510505507953063,0.5139841502726477,-0.13955334006459413
3.676803754270077,-8.940501490831375,2.1521877349913123,-0.6477150910164995,0.703479646888287,0.27008753986245987,0.11240226018396136
3.645664699673653,-8.867444624304772,2.1857221014797688,-0.5583455436968208,0.7530274221749084,-0.013387837146010266,0.347880325835
3.6396765661239625,-8.847084619402885,2.2264424036443233,-0.38740318806636087,0.6924418770037922,-0.29490431985666843,0.5324231953787896
3.707942808866501,-8.847084619402885,2.218058812022209,-0.15393240616236725,0.5257698847915043,-0.5381337953592457,0.640533262892448
3.776209343969822,-8.860258980989457,2.164164294451475,0.0970900803107704,0.2850212452750598,-0.6963290567169763,0.6515076751802303
3.808545908331871,-8.874630852341653,2.150990079045296,0.333912048877469,0.0026351167213726325,-0.7528215739493815,0.5672349403648294
3.809743710458279,-8.872235248088836,2.1270369601249697,0.5219296271438314,-0.28019631201405865,-0.6993276549848602,0.4000254017141883
3.8205224677920344,-8.862654000520706,2.125839304178953,0.6336312166322072,-0.522111584155798,-0.5436005482804174,0.17438296622302737
3.833696829378605,-8.859060886502267,2.1521877349913123,0.6526946406084325,-0.6877557018867637,-0.30839535502541593,-0.0766427142135628
3.8540568342804913,-8.877025871872902,2.1917103812098504,0.5763319204789699,-0.752943226909568,-0.02805235643521677,-0.3164349534840623
3.8875912007689477,-8.900978990793229,2.1725478860735894,0.4108788731476915,-0.7057775962194831,0.26292771500097606,-0.5137368518608502
3.9007655623555184,-8.942897095084192,2.170152574181557,0.18830526038952666,-0.5551829982431576,0.5085878416449123,-0.630596047166758
3.9007655623555184,-9.041104590296746,2.1917103812098504,-0.06188662569317962,-0.32336085233310113,0.6800076196927887,-0.6551316218123424
3.8696265077590946,-9.12733581840992,2.2264424036443233,-0.303044144815853,-0.04420556193331159,0.7520089260571464,-0.5836888637942013
3.840882765054703,-9.183625794053079,2.2491978666186334,-0.49987856790320295,0.2414881646772371,0.7139648971761885,-0.426683734482646
3.8061505964398386,-9.184823303818703,2.2959064485132696,-0.6235010082857968,0.4918426020594609,0.5713400295086457,-0.20714226547721593
3.784592789411545,-9.169253922700882,2.3006970722973348,-0.6553174704336238,0.6733037676321211,0.3388701302255889,0.048868029198645885
3.7809999677538872,-9.141707689762116,2.313871287703514,-0.5893732990689895,0.7507783879223947,0.061284371607376216,0.2919163448145286
3.809743710458279,-9.102185189723969,2.309080663919449,-0.43716540575810314,0.7182242215657872,-0.2252081316207847,0.492261793171527
3.8444755867123606,-9.045895214080812,2.2719533295929435,-0.22094906662368136,0.5805141276119149,-0.47860574280003376,0.6205815019479146
3.866033393740654,-8.987210218906403,2.236023651212454,0.027716451499167634,0.3578304848732491,-0.6619030056493983,0.6580832420932494
3.8588474580645564,-8.898583971261978,2.1857221014797688,0.27241311358769615,0.08281697600849912,-0.7482764367008162,0.599178452807337
3.8360921412706377,-8.842293995618821,2.164164294451475,0.4773016061030483,-0.20435583955722567,-0.7250775228044699,0.4524206599770233
3.78938341319561,-8.768039034605026,2.155780702829361,0.61442964189191,-0.4670877076548289,-0.5914180770879173,0.23351648039478243
3.776209343969822,-8.659052782058716,2.125839304178953,0.6573707494419555,-0.6546295318149483,-0.3729501683396034,-0.015233049245797343
3.7917787250876427,-8.614739073514938,2.140211175531149,0.6039031839502582,-0.7461806057672952,-0.0997544989863521,-0.2618482154292347
3.8265108937025074,-8.584797821044923,2.1426064874231816,0.4617839137191755,-0.728265163067077,0.18807750857279265,-0.47011947424259715
3.8780099532008174,-8.585995330810547,2.1330252398550513,0.25188851764228803,-0.6034690239359114,0.44826845060197607,-0.6094527939264146
3.9259161910414697,-8.623122811317444,2.143804143369198,0.004947706094196848,-0.390016970537163,0.6426625806927055,-0.6594293671613443
3.918730255365372,-8.611146544218064,2.1665596063435077,-0.2426959875155833,-0.11930067106484991,0.7426368603074199,-0.6126634485915168
3.9007655623555184,-8.572821553945541,2.194105693101883,-0.459113541524331,0.17574468379798655,0.7320023827063256,-0.47170019484625414
3.9019630721211436,-8.559647192358971,2.1845244455337527,-0.6025201562662212,0.43811236971375633,0.6127008082124421,-0.2638649889859309
3.922323369383812,-8.558449682593347,2.15937367066741,-0.6574857332688948,0.6361283158447921,0.4034259081250758,-0.017343960960234252
3.9474739980697633,-8.535694073438645,2.1078744649887087,-0.615911128494596,0.7407830981956502,0.13486523977886872,0.23174393265748125
3.969031805098057,-8.517729088068009,2.1090721209347247,-0.48390522318218804,0.7366394357820315,-0.153553693594939,0.44678780177068245
3.9450786861777307,-8.506950330734254,2.1090721209347247,-0.28087544842988765,0.624314078678144,-0.41941854957657776,0.5961786593837869
3.960648359656334,-8.5464728307724,2.0695494747161867,-0.030506521354570805,0.4145672902577516,-0.6275905944371214,0.6582806086899787
4.012147419154644,-8.606355920433998,1.9881088703870775,0.2187843356295275,0.14787815737935564,-0.7377997749905585,0.621222147928673
4.052867721319199,-8.696179677844048,2.009666677415371,0.4359656553358442,-0.14058603285131707,-0.7396654454448556,0.4930157639970349
4.050472409427166,-8.704563415646554,2.077933066338301,0.5891300296661124,-0.40844084819954285,-0.6329076732364519,0.2924547124360692
4.03011240452528,-8.643482816219331,2.077933066338301,0.6557717325529087,-0.6163082124894649,-0.43327811375065806,0.04896629603379042
4.001368661820889,-8.529705939888954,2.032422140389681,0.6260787847399019,-0.7337543371552088,-0.1700623334198705,-0.20176404723418057
4.014542731046677,-8.51533406853676,2.024038548767567,0.5044004750370089,-0.7435161225531134,0.11815543082098431,-0.4228513101002892
4.032507716417313,-8.554856568574905,2.0228408928215504,0.30315218101400543,-0.640558198526034,0.39502433887946986,-0.584585084603064
4.064844280779362,-8.63150654911995,1.9928994941711426,0.061333173252127136,-0.44461611804080037,0.6070427420168895,-0.6557849180956893
4.0923905137181285,-8.730912138819695,1.9665510633587837,-0.1894399849628772,-0.18337583811653532,0.7299228417971622,-0.6306333634649202
4.064844280779362,-8.813550252914428,1.9509815360605718,-0.41235276945411203,0.10487174959490927,0.745626030340205,-0.512843965100043
4.038495849967003,-8.833910257816315,1.9509815360605718,-0.5746805587822561,0.37771266172672796,0.6517792849345062,-0.31977986843966255
4.038495849967003,-8.818340876698494,1.933016696870327,-0.6526458708523359,0.5950095515941671,0.4622143996166022,-0.079842655004503
4.038495849967003,-8.808759629130364,1.9773299668729307,-0.6348596898195307,0.7249335149813106,0.20474365633841138,0.17176905509511786
4.048077097535134,-8.766841524839402,2.0336197963356972,-0.5201414339924634,0.7476731104350637,-0.08967634484310132,0.4029838231892221
4.073228018581867,-8.687796524763108,2.039608076065779,-0.3306968432063005,0.658795102775689,-0.3641916129422698,0.5692038997711318
4.049274899661541,-8.661447801589967,2.010864333361387,-0.09261134937727394,0.473227854752723,-0.5852982354963993,0.6518469996689851
4.037298340201378,-8.680610296726227,1.9821205906569959,0.15910992450082337,0.21819362625443783,-0.7204916073043565,0.638723271214746
3.98100836455822,-8.747679029703141,1.9964924620091915,0.38744907699974607,-0.06898525202117137,-0.7499160597965626,0.5317425608269649
3.942683374285698,-8.775225262641907,2.0384104201197624,0.5588141570736447,-0.3460809818933461,-0.6691852081390935,0.3466206125342916
3.9474739980697633,-8.812352743148804,2.0144573011994362,0.6480540649399125,-0.5722935810087957,-0.4901699138018108,0.11063201008076351
3.9666364932060243,-8.811154648661613,1.9881088703870775,0.6407878843798931,-0.7166101763498633,-0.2325671707372342,-0.14755762765454186
3.9726249191164973,-8.774027752876282,2.006073709577322,0.5385730272389748,-0.7510625132092086,0.05392205721005143,-0.37806958000975144
3.9522646218538284,-8.747679029703141,2.047991667687893,0.357348016484999,-0.6751982411732506,0.33247207817460483,-0.553057002003451
3.9342999288439753,-8.774027752876282,2.116258056610823,0.12369953727136768,-0.5001585437524046,0.5622279592273548,-0.6468690574245821
3.9079514980316166,-8.784806510210037,2.164164294451475,-0.12807375060182752,-0.25171613432901496,0.7094304488242599,-0.6457124285672743
3.8708240175247193,-8.80636402487755,2.1665596063435077,-0.3610639569935841,0.033708039650571966,0.7525301571059385,-0.5497226115680183
3.82890620559454,-8.824329010248185,2.1917103812098504,-0.5444274387929545,0.3205207792006852,0.6822872561423938,-0.3678984834103193
3.7750115418434147,-8.847084619402885,2.212070532292128,-0.6427781102887353,0.5533231597575576,0.5121545884893507,-0.1355265999678974
3.771418720185757,-8.885409609675408,2.1689549182355403,-0.6467504049110336,0.7049014725073572,0.2668362617222811,0.11673147490909191
3.8193249580264093,-8.924932109713556,2.1114674328267578,-0.5558040235626073,0.7529755361477879,-0.01761158957923313,0.35185161825272393
3.860045260190964,-8.93571086704731,2.0563752593100073,-0.3833168117896203,0.6905388776069317,-0.299392071917594,0.5353397683580868
3.8828005769848826,-8.95846647620201,2.063561194986105,-0.1545651704201416,0.5267528295954768,-0.5372163057773767,0.6403434277113019
3.861242769956589,-8.947687718868256,2.1533853909373284,0.09682896668236263,0.2856758515717171,-0.696126694771194,0.6514760808095206
3.8121390223503115,-8.900978990793229,2.202489284723997,0.3392758252009803,-0.004241009096035543,-0.7529381252975658,0.5638777418460746
3.78938341319561,-8.850677733421326,2.1857221014797688,0.5259726020048077,-0.2870807930736123,-0.6966156327107985,0.39454290064763786
3.7774068537354473,-8.819538386464119,2.1569783587753775,0.6354884531475701,-0.5277901313610176,-0.5381383322017221,0.16732943127010688
3.7750115418434147,-8.80756211936474,2.1186533685028555,0.6517449715519806,-0.6911226615064671,-0.3007367298585781,-0.08447116740577208
3.7929765272140505,-8.82911963403225,2.0731424425542357,0.5723561682588858,-0.7530862739063007,-0.019250877329484797,-0.32388097263034044
3.8169296461343767,-8.909362728595735,2.077933066338301,0.40906068020655284,-0.7045858388359292,0.26501416731140753,-0.5157476580121948
3.8193249580264093,-8.982419595122337,2.101886185258627,0.18580479943419184,-0.5527334220250236,0.5104275352260437,-0.632001639212109
3.803755284547806,-8.969245233535768,2.1378158636391165,-0.07075622114871685,-0.3135518512371845,0.6839176592437686,-0.6549316217201708
3.766628096401692,-8.872235248088836,2.1342228958010674,-0.31111004600697584,-0.03312291540416591,0.7519875680751046,-0.5801966125453987
3.707942808866501,-8.778818376660347,2.098293217420578,-0.5058211066201749,0.2521616209517389,0.7098193733843716,-0.42037600096193795
3.7055474969744684,-8.777620282173157,2.0384104201197624,-0.6263243569718683,0.5004559170222502,0.5636326682971806,-0.198946953254868
3.746267799139023,-8.820735896229744,2.010864333361387,-0.6550150934767264,0.6754112659323623,0.3348219007243159,0.05166375871610365
3.8049530866742134,-8.859060886502267,1.9809229347109796,-0.5876609003431311,0.7513668430303627,0.05692107149489253,0.29472449002816176
3.8205224677920344,-8.84468901515007,2.0180502690374853,-0.4295129480090619,0.7150195244491762,-0.23596124362632068,0.4985859992572586
3.78339527964592,-8.783609000444413,2.0647588509321215,-0.21117410445830015,0.5732570990333821,-0.48734239625551684,0.6239224189160034
3.746267799139023,-8.76085339128971,2.05877057120204,0.03810787962896772,0.34745025788952205,-0.6672546893166397,0.6577212839703787
3.72830310612917,-8.794387757778168,2.039608076065779,0.281809571511675,0.07065789479420846,-0.7493476354233559,0.5950369304447263
3.7378843536973,-8.83870088160038,2.0192479249835014,0.48417386164085896,-0.2165004301878762,-0.7215349041140796,0.445073721508391
3.7618374726176262,-8.875828362107278,2.009666677415371,0.6155341695954613,-0.47186447884707144,-0.5878944832870837,0.22987317412743188
3.8121390223503115,-8.918943976163865,2.0180502690374853,0.6566919119305851,-0.6580077440748465,-0.36799335653128523,-0.01903762304812374
3.8360921412706377,-8.942897095084192,2.0312244844436647,0.5990841456911546,-0.7484613146167831,-0.08724496612938498,-0.2707252533265023
3.848068700730801,-8.877025871872902,2.039608076065779,0.45392146491674923,-0.725719329259136,0.20021140480620137,-0.47665726912848977
3.822917779684067,-8.748876539468766,1.974934654980898,0.24210335239561967,-0.5965752583213525,0.4583510146301687,-0.612697539822961
3.776209343969822,-8.709354039430618,1.9378073206543924,-0.00526867606923341,-0.37995870911812635,0.6492960879954144,-0.6588005847990844
3.7295006158947945,-8.697377772331238,1.9497838801145555,-0.2519341399465301,-0.10756938862931907,0.745058354834822,-0.6081497049659279
3.731895927786827,-8.776422772407532,1.947388568222523,-0.4616121702286304,0.180603610544803,0.7315057003317068,-0.46818367179688614
3.7750115418434147,-8.91654837191105,1.9497838801145555,-0.6035256384284625,0.4422361253579319,0.6105856893910416,-0.25955563777114665
3.803755284547806,-9.012360847592355,1.978527622818947,-0.6569793704833186,0.6426438576205189,0.3941340377152805,-0.006733449057527555
3.7941740369796757,-9.017151471376419,2.0084690214693546,-0.6117550288467211,0.7430545278448949,0.12386086894550427,0.24142128836126378
3.7630349823832514,-8.932118337750435,2.0228408928215504,-0.4768105963401577,0.7343908425234629,-0.16455816946713783,0.4541391356148976
3.747465601265431,-8.862654000520706,2.0144573011994362,-0.2718766016447711,0.6179683169366491,-0.42884230342378377,0.60024374343658
3.7426749774813652,-8.860258980989457,2.0144573011994362,-0.027014630957678556,0.410913514534118,-0.6301951813068322,0.658235768357424
3.7726162299513817,-8.862654000520706,2.0120619893074037,0.22192078684958783,0.1435582926504394,-0.7390986633074853,0.6195767481696187
3.808545908331871,-8.897385876774788,1.978527622818947,0.4383217131196068,-0.14486819620930347,-0.7395169197735001,0.489899996839835
3.802557774782181,-8.940501490831375,1.9928994941711426,0.5929798338027773,-0.41785915658492645,-0.6275579775027831,0.28273596664375894
3.776209343969822,-8.974035857319832,2.025236204713583,0.6560831682748947,-0.622681321303906,-0.42469033707364756,0.03822258497105747
3.731895927786827,-8.996791466474534,2.047991667687893,0.6228395784617966,-0.7360595564168898,-0.15940499521126358,-0.2118424801842162
3.6923734277486804,-9.017151471376419,2.0707471306622027,0.49816598586446,-0.7413447365072178,0.12928478185741038,-0.43072506005666333
3.6720131304860115,-9.00517520427704,2.0851190020143986,0.30033436082659504,-0.6377810168669235,0.39900338204798097,-0.5863709980424906
3.6827921801805497,-8.974035857319832,2.0264338606595995,0.05839215620721552,-0.4406386337836121,0.6100779802283217,-0.6559213432655745
3.695966249406338,-8.92732771396637,1.9845159025490284,-0.19801075386508138,-0.1720889029529472,0.7332385641399797,-0.6273263575621338
3.7115359228849414,-8.940501490831375,1.9306213849782945,-0.41927206363971825,0.11609135525973562,0.7446362945211769,-0.5062119346351105
3.7019546753168107,-8.982419595122337,1.9629580955207349,-0.5789554842518541,0.3872285868475654,0.646717979829752,-0.31083825914398483
3.7247099921107294,-8.940501490831375,2.0072713655233385,-0.6536901640976412,0.6015276356784411,0.45384803745992097,-0.06982572427752876
3.747465601265431,-8.906967124342918,1.9952948060631752,-0.6324521841001433,0.7275286249897259,0.19437216043352293,0.1814546717390377
3.7438724872469904,-8.8542702627182,2.009666677415371,-0.5183473086815327,0.7467520031543866,-0.09362418692051856,0.40609361604314165
3.7247099921107294,-8.788399624228479,2.0276315166056156,-0.3280659302055209,0.6563802329646159,-0.36791321456764975,0.5711196037242999
3.703152185082436,-8.769237129092216,2.010864333361387,-0.08343667692915809,0.464232572648908,-0.5925816408283718,0.6529727700202745
3.7247099921107294,-8.791992153525353,1.994097150117159,0.1681252312599212,0.20729348577152226,-0.7241237939031531,0.6359308519593885
3.7678256061673165,-8.856665866971017,1.9761323109269142,0.395015952235812,-0.08015686963123932,-0.7492750831214814,0.5254751407473548
3.7929765272140505,-8.93571086704731,2.0264338606595995,0.5638578061891641,-0.35584617442438243,-0.6642738130518426,0.3379026129532601
3.8157318440079693,-8.978826481103898,2.0803283782303335,0.6498959221009275,-0.5792676349918447,-0.4816041406753063,0.1007062519009613
3.821720269918442,-8.952478342652322,2.0911072817444802,0.6404544643270791,-0.7175498528765715,-0.22813910004231755,-0.15130379635754757
3.7977671509981157,-8.889002723693848,2.087514313906431,0.5368852602272017,-0.7503826003860562,0.05883526042666191,-0.3810755601178813
3.7546515369415285,-8.84588710963726,2.0647588509321215,0.3491504360197304,-0.6698555696599293,0.34342150599842036,-0.5580763012712335
3.751058422923088,-8.856665866971017,2.063561194986105,0.11370253482162387,-0.4913985098266203,0.5705642063620712,-0.648117060826001
3.7594421607255937,-8.905769614577293,2.047991667687893,-0.13848339078353455,-0.24069462815906217,0.7138585477723677,-0.6428797867601623
3.784592789411545,-8.941699585318565,2.049189323633909,-0.3703173430833368,0.04538431802697294,0.7521917884694792,-0.5431508468630156
3.790581215322018,-8.94888522863388,2.067154162824154,-0.5477204222257196,0.32476385831634974,0.6799288863283083,-0.3636309735772022
3.7678256061673165,-8.940501490831375,2.079130722284317,-0.6446393070805831,0.5564284271644417,0.5076951932231237,-0.13066430265419227
3.7163265466690065,-8.898583971261978,2.1078744649887087,-0.6456087023634771,0.7086891303619838,0.2543423987937774,0.1275110352681268
3.6923734277486804,-8.83630586206913,2.1306299279630183,-0.5505721640829763,0.7520638802333369,-0.031179916520053187,0.36096817725551356
3.6780015563964845,-8.824329010248185,2.121048680394888,-0.3745512045166731,0.6849688845342518,-0.31211787269698626,0.5413976874332953
3.6780015563964845,-8.808759629130364,2.1198510244488715,-0.14344118474979506,0.5172694303615802,-0.5471597290788125,0.6422407600000036
3.6971640515327455,-8.827922124266625,2.1078744649887087,0.10882671824508122,0.2735570942579007,-0.7018083866857241,0.648681932810496
3.7247099921107294,-8.859060886502267,2.098293217420578,0.34514113684192294,-0.010352806946568186,-0.7532724016257245,0.5597777273139809
3.707942808866501,-8.850677733421326,2.0851190020143986,0.5307204052638779,-0.29270129984055426,-0.6940004727945432,0.3886195366539688
3.6863850018382074,-8.831515238285066,2.117455712556839,0.6397943294367423,-0.5369164773893788,-0.5277710390074937,0.15440739202939946
3.6432693877816202,-8.759655881524086,2.1378158636391165,0.6513564398115729,-0.6957452095839469,-0.2866458511834437,-0.0975066544206162
3.6049443975090982,-8.660250291824342,2.1378158636391165,0.5672687331170463,-0.7522894791919714,-0.0034443149580365207,-0.3350445651242884
3.6013515758514405,-8.619529697299004,2.1138627447187903,0.39986148164600116,-0.6982976143710236,0.2802638985700165,-0.5233960110833262
3.603746887743473,-8.678215277194978,2.098293217420578,0.17376592805564328,-0.541711272375601,0.5227870956279167,-0.6348605770349077
3.618118759095669,-8.73450466811657,2.1342228958010674,-0.07786969873390158,-0.30548063049493257,0.688514473959835,-0.6531199840452914
3.6468625018000607,-8.770434638857841,2.2192564679682256,-0.3180397702723944,-0.02431859785737047,0.753014195942149,-0.5755249178210555
3.7354890418052675,-8.800375891327858,2.2731509855389596,-0.515292241405744,0.26690433161590676,0.7044321491866797,-0.4086701982087094
3.822917779684067,-8.782410905957223,2.2911158247292045,-0.631610993424471,0.5119360120538478,0.5521042380641675,-0.18485124521988056
3.848068700730801,-8.739295291900635,2.2887205128371715,-0.6551599518959402,0.6817780750170588,0.3186981387961497,0.06614824401005064
3.78938341319561,-8.702168396115303,2.2779416093230247,-0.5824356081902927,0.7515176538267315,0.0385169275290256,0.30741897240166
3.7247099921107294,-8.717737777233124,2.265965049862862,-0.424125556084858,0.7109310692481053,-0.24736558128801192,0.5034925984038887
3.7175240564346317,-8.805166515111924,2.2911158247292045,-0.20361702231229212,0.5659547472363106,-0.49689629886471215,0.6255632665685462
3.770220918059349,-8.954873362183571,2.293511136621237,0.046723012668187645,0.3378789779837018,-0.6734967345204681,0.6557872405850571
3.8348943391442303,-9.021942095160485,2.3030923841893673,0.29563479839538265,0.053315731228503783,-0.7517835896550181,0.5870084608476327
3.8432780769467354,-9.03032583296299,2.274348641484976,0.495068995441648,-0.23283196905626743,-0.7166050051833268,0.4326352164167674
3.776209343969822,-8.984815199375152,2.221651779860258,0.6218377907063819,-0.4848569897831401,-0.5763044319539707,0.21471996464709397
3.6863850018382074,-9.019547075629236,2.164164294451475,0.6572555309811905,-0.6657974130274145,-0.3514601293561843,-0.03470949831919154
3.626502204537392,-9.067453313469887,2.150990079045296,0.5961387766386731,-0.7490856067654786,-0.07506885395797307,-0.27902326048194875
3.619316268861294,-9.085418298840523,2.1725478860735894,0.44745343477551963,-0.7224777268873176,0.21236650434048235,-0.4824021410540468
3.6851874920725822,-9.104580793976783,2.194105693101883,0.22727402703894506,-0.5855399282389524,0.47403313998832525,-0.6170754340145396
3.747465601265431,-9.162068279385567,2.190512725263834,-0.021798274961491573,-0.3645956441059989,0.6593992574097908,-0.6571053727029262
3.7594421607255937,-9.165660808682443,2.202489284723997,-0.2677591077443838,-0.09011894236990961,0.7479580451973687,-0.6006183472643765
3.7306984180212024,-9.103382699489593,2.190512725263834,-0.4744245032912891,0.19758656291840584,0.7266870616024632,-0.45585837200876594
3.689978115856648,-9.017151471376419,2.140211175531149,-0.6114000632962995,0.4563091363626177,0.5986774519628397,-0.24404352723349304
3.6911756256222725,-9.009965828061103,2.082723690122366,-0.658496847354858,0.6479976681404396,0.38271083885317564,0.003652113438035713
3.7750115418434147,-9.000384580492973,2.049189323633909,-0.6088052300134842,0.7444530613138262,0.11055254024332116,0.25084650137972875
3.8504640126228336,-8.989605823159218,2.0192479249835014,-0.465216428654598,0.729887903698632,-0.18461312377942393,0.4655698841985819
3.88040526509285,-8.941699585318565,2.044398699849844,-0.25562993515680255,0.6069488124914217,-0.4457439327815714,0.606282790169241
3.856452146172524,-8.902176500558854,2.0563752593100073,-0.00841584800743393,0.3947171564506364,-0.6413772099079282,0.6578471057294095
3.8013599726557734,-8.84468901515007,2.0563752593100073,0.24000607621355632,0.1244018981790055,-0.7426936685359612,0.6126396704643184
3.7726162299513817,-8.81594527244568,2.03601510822773,0.45306193479914453,-0.16419419519902226,-0.7347869220452549,0.4773503207187166
3.760639670491219,-8.790794643759728,2.0228408928215504,0.5994765196683166,-0.42867398506690224,-0.6188320552859907,0.2718701974173342
3.78339527964592,-8.796782777309419,2.024038548767567,0.6577309318744532,-0.6301053117247623,-0.4118971196475738,0.026421207728559295
3.822917779684067,-8.820735896229744,2.0659565068781376,0.6171365423744458,-0.7402203731209337,-0.1375999460373055,-0.2286537603743924
3.8492662104964257,-8.802771495580673,2.0911072817444802,0.48563745714415074,-0.737671436345852,0.15110723704338644,-0.4440312096363549
3.8193249580264093,-8.758457787036896,2.098293217420578,0.2827387512181149,-0.6267033352453439,0.41759295158464443,-0.5940688974679686
3.776209343969822,-8.742888405919075,2.0527822914719582,0.0382631491921691,-0.4236202199322417,0.6227371632874297,-0.6567193206684131
3.7378843536973,-8.802771495580673,2.0659565068781376,-0.21177017819591323,-0.15826086797742522,0.7363473222450666,-0.6228157916402114
3.6923734277486804,-8.889002723693848,2.1030838412046435,-0.43057838643987373,0.13032277098426145,0.7417449451883356,-0.4974260395087612
3.703152185082436,-8.95846647620201,2.1294322720170022,-0.5888494244336397,0.4056248360755641,0.6344907274276986,-0.29350700930491047
3.7067452991008762,-8.990803332924843,2.1461994552612307,-0.6561067709311454,0.6144508727803012,0.435222149487322,-0.050554037162887845
3.661234373152256,-9.006372714042664,2.135420551747084,-0.627018271209399,0.7330188135682129,0.17209382309450702,0.19978794402401492
3.618118759095669,-9.000384580492973,2.150990079045296,-0.5058991339854014,0.7439432183683304,-0.11628519805451654,0.4208233676853192
3.58817721426487,-9.006372714042664,2.1533853909373284,-0.31058541168291487,0.6456610607816403,-0.38751480267811883,0.5800782484677561
3.5833865904808047,-8.971640837788582,2.1366182076931,-0.069702527485151,0.45263513317494375,-0.6018436470624395,0.6542531760476706
3.626502204537392,-8.957268966436386,2.077933066338301,0.1814240014965784,0.19323571949470014,-0.7278285409045169,0.6324641518988541
3.6588390612602235,-8.974035857319832,2.082723690122366,0.41074073204198713,-0.10136879208243091,-0.7461390475233007,0.5140942917348752
3.6827921801805497,-8.940501490831375,2.1078744649887087,0.5740413021195306,-0.3743631510080131,-0.653154665670368,0.32205247606763593
3.6600365710258487,-8.871037738323212,2.1090721209347247,0.6531349955931404,-0.5924289171507773,-0.46432721183575143,0.08272179884373344
3.6468625018000607,-8.809957138895989,2.0923049376904967,0.6363749385242564,-0.7235632403665748,-0.20737628251456858,-0.1687550066187936
3.664827194809914,-8.769237129092216,2.0839213460683825,0.5262080534065072,-0.7485061434507202,0.08006387360771487,-0.3955166417353285
3.6863850018382074,-8.770434638857841,2.0659565068781376,0.33880052005692907,-0.6635737426024841,0.3557500544907432,-0.5642038589619179
3.7546515369415285,-8.794387757778168,2.0527822914719582,0.10162722930109724,-0.48118554909861,0.5792298240403221,-0.6500962886722771
3.803755284547806,-8.850677733421326,2.047991667687893,-0.156404453111697,-0.22149424619686986,0.7197396873756937,-0.6391030655260933
3.8313015174865725,-8.851875243186951,2.055177603363991,-0.38542447677347985,0.06538349590755944,0.7500611773922691,-0.5334615275122645
3.8492662104964257,-8.84468901515007,2.040805732011795,-0.5578753240494014,0.3426927259512137,0.6702241763422667,-0.34948014513450115
3.827708403468132,-8.799178381562234,2.0180502690374853,-0.6483900594446557,0.5696696680722854,0.49196604254025195,-0.11417623692805391
3.8001624628901483,-8.75127214372158,2.0264338606595995,-0.6436771163199945,0.7129858741966917,0.24150645765883036,0.13786059636835746
3.8061505964398386,-8.733307158350945,1.9833182466030121,-0.5444081503206565,0.7516583907374151,-0.044396714008385206,0.3696733169755946
3.8456733888387684,-8.764446505308152,1.9569698157906534,-0.3652066396045611,0.6799971061996555,-0.3237341736047368,0.5471967021001651
3.885195888876915,-8.820735896229744,1.9641557514667511,-0.12634255250464158,0.5033977134686635,-0.5602480883766027,0.6455620659328549
3.9127421218156817,-8.851875243186951,2.0000854298472404,0.1259677844791069,0.2558416699082456,-0.708202772338811,0.6458529170512493
3.9247186812758446,-8.874630852341653,2.051584635525942,0.3597554492638574,-0.02925175369979405,-0.7521706073291351,0.5513254293977077
3.899567760229111,-8.879421476125717,2.1114674328267578,0.5407215414315556,-0.3100983533449884,-0.6857044769711023,0.37585714859025426
3.8708240175247193,-8.896188367009163,2.1270369601249697,0.642265911390706,-0.5454331598383547,-0.5185711943694429,0.14519326287560083
3.864835883975029,-8.92732771396637,2.140211175531149,0.6495005907990666,-0.7006845283886421,-0.27530672398315104,-0.10675383814231003
3.9019630721211436,-9.002779600024224,2.173745542019606,0.5581272282791083,-0.7529910258517549,0.015355996893028115,-0.34822795034233434
3.8828005769848826,-9.062662689685823,2.22764005959034,0.385921858052451,-0.6921524864336716,0.2972951770507587,-0.5325456156080792
3.8492662104964257,-9.051883932352066,2.2527908344566825,0.1570367106695716,-0.5296828281092985,0.5355981124116604,-0.6386785068321017
3.8001624628901483,-9.015953961610794,2.2228494358062747,-0.09491552332919347,-0.2894633388088453,0.6952595652454019,-0.6510116403349143
3.7750115418434147,-8.962059590220452,2.1917103812098504,-0.33292421870965794,-0.006793134880969606,0.7528302708508368,-0.5677692323521139
3.7917787250876427,-8.891397743225099,2.1533853909373284,-0.5221057599378853,0.2768652473671392,0.699860462340208,-0.4011814346314724
3.8456733888387684,-8.82911963403225,2.173745542019606,-0.6347062186258288,0.5198089043699016,0.5441131162546166,-0.1757487857572686
3.9019630721211436,-8.787201529741287,2.2036869406700137,-0.6534418280184114,0.6892320916196975,0.3022007261278466,0.08153295287977837
3.9259161910414697,-8.783609000444413,2.2192564679682256,-0.5748044707164226,0.7524249368746265,0.020769113164287898,0.32097535536548033
3.8828005769848826,-8.759655881524086,2.194105693101883,-0.4118619881340726,0.7052628435823005,-0.2636545314645242,0.513283851519487
3.8324990272521973,-8.717737777233124,2.116258056610823,-0.18846322150964837,0.5547187793372803,-0.5094443439327155,0.6302659362711331
3.7941740369796757,-8.683005900979042,2.0312244844436647,0.06258797781084298,0.3228767882161307,-0.6805566100608774,0.6547335528039113
3.77980216562748,-8.671029049158097,1.994097150117159,0.3044234268580878,0.043731332577533276,-0.7518808971045686,0.5831715564910557
3.8265108937025074,-8.669831539392472,1.99050418227911,0.5016785218573137,-0.241829691126919,-0.7129290039335215,0.4261094889190766
3.879207755327225,-8.681807806491852,2.006073709577322,0.6272678960757501,-0.49715095674956483,-0.564872383122816,0.20073640312819427
3.9211255672574046,-8.690191544294358,2.025236204713583,0.6570321285572582,-0.6729304753712942,-0.33620592767996926,-0.049385539917406455
3.9438811764121056,-8.683005900979042,2.0024807417392734,0.5904401432371126,-0.7500155430445048,-0.05821443242260737,-0.29234945237422366
3.9271139931678776,-8.657854687571525,1.9964924620091915,0.43722170780118924,-0.7170822651350901,0.22831077972276906,-0.4924473485749731
3.8708240175247193,-8.636297172904015,1.994097150117159,0.21976595910829197,-0.5789057558104601,0.48145091081950425,-0.6203032077764891
3.814534334242344,-8.65066904425621,2.001283085793257,-0.029935478150640325,-0.3557326077188841,0.6639455332086843,-0.6570650712719792
3.808545908331871,-8.717737777233124,2.0264338606595995,-0.2807451460410694,-0.0734021731327519,0.7497004200651114,-0.5947634522295092
3.860045260190964,-8.794387757778168,2.0276315166056156,-0.48426058171708847,0.21359660905372033,0.7220306885667171,-0.44557812150469345
3.910346809923649,-8.862654000520706,2.0420033879578114,-0.6167389748779188,0.4692152141230245,0.5882986186311874,-0.23102998727146837
3.9342999288439753,-8.915350862145424,2.074340098500252,-0.6587474297259914,0.6558906387277585,0.3681803616372229,0.0173929630418916
3.922323369383812,-8.914153352379799,2.0958979055285454,-0.6040945582729392,0.7462598599401775,0.09397806868940332,0.26331370779452185
3.872021819651127,-8.874630852341653,2.1042814971506596,-0.4607576178291158,0.7270627691165128,-0.19401100473573735,0.4705761122480576
3.8360921412706377,-8.859060886502267,2.1282346160709857,-0.24972866663617896,0.6011037275752363,-0.4535877440750494,0.6087430165350398
3.8061505964398386,-8.883014005422593,2.1857221014797688,0.004110703149452028,0.3809132189607583,-0.650179371057128,0.6573849763968812
3.827708403468132,-8.94888522863388,2.2156635001301765,0.25162798792047175,0.10895178737986849,-0.7457166499576893,0.6072228105874383
3.8157318440079693,-8.975233951807022,2.2264424036443233,0.46218312771611014,-0.17906609559197537,-0.7317642129441904,0.467806826070515
3.7738140320777895,-8.884212099909783,2.1713502301275733,0.6047838382045899,-0.44080803175657834,-0.610357051352737,0.25959402545014026
3.7247099921107294,-8.82911963403225,2.077933066338301,0.6584278427947275,-0.6378352126261286,-0.39932850505652456,0.013257541860545083
3.7163265466690065,-8.849479638934136,2.001283085793257,0.615283473713026,-0.7412089518572639,-0.1296179708938065,-0.23502067628968396
3.7786046558618547,-8.968047723770143,1.971341687142849,0.4817482861332422,-0.7356817771552219,0.1590957801259829,-0.4487532109250284
3.8205224677920344,-9.008768318295479,2.039608076065779,0.2718524605724548,-0.6181302600466562,0.4301694883531525,-0.5991372401923803
3.8193249580264093,-8.972838347554207,2.1090721209347247,0.026222534189016728,-0.4111745908292078,0.6312139560824908,-0.6571276711597456
3.802557774782181,-8.874630852341653,2.1725478860735894,-0.22324057896964816,-0.14382548297449868,0.7395000286655941,-0.6185608959124673
3.7306984180212024,-8.826724614501,2.22764005959034,-0.4398506911249064,0.1447183202121405,0.7391633444219097,-0.4891068672334666
3.722314680218697,-8.805166515111924,2.248000210672617,-0.5917872117634919,0.4120198437521722,0.6302396577509212,-0.28779422882613376
3.733093729913235,-8.794387757778168,2.209675220400095,-0.6567305876019562,0.6188048676555813,0.4287522106814537,-0.04423813863075745
3.78938341319561,-8.808759629130364,2.1881174133718013,-0.6252289457168676,0.7346831014337466,0.1642298709657879,0.20581072709658732
3.837289651036263,-8.805166515111924,2.164164294451475,-0.49789684412823904,0.7414562613113377,-0.13125768146201147,0.4302473314578144
3.8576499482989313,-8.76085339128971,2.1234439922869206,-0.29940158747703083,0.6377459896324329,-0.40064839356909304,0.5857641221980806
3.8744171315431597,-8.672226558923722,2.1234439922869206,-0.056845053436616305,0.4403287126320871,-0.6111729677253512,0.655245654890854
3.8121390223503115,-8.583600311279298,2.1330252398550513,0.1940782559804381,0.17819896731603735,-0.7319094699378449,0.62840057799018
3.784592789411545,-8.574019063711166,2.1581760147213935,0.4164955079959914,-0.11018650392503279,-0.7450732100072375,0.5091722084928151
3.7941740369796757,-8.644680910706521,2.1653619503974917,0.5776653927293911,-0.38238692558026416,-0.6486789034661785,0.3151168249808126
3.8780099532008174,-8.699772791862488,2.1809314776957036,0.654566228784728,-0.6025637987911898,-0.4513824882846938,0.06865689907640693
3.9594505575299266,-8.714144663214684,2.221651779860258,0.6324407326625917,-0.7281064835584767,-0.1912208159687267,-0.18252196527971157
3.992984924018383,-8.702168396115303,2.304290040135384,0.517444129622263,-0.7465369045663293,0.09701020938097234,-0.40684547695143675
3.97502023100853,-8.75127214372158,2.352196277976036,0.3264952911180505,-0.6552187230760721,0.37096303850867407,-0.5713804983272645
3.8971724483370784,-8.856665866971017,2.355789245814085,0.08768562326521306,-0.46765217713195345,0.5904100603982099,-0.6519422008713023
3.7977671509981157,-8.921338995695114,2.2875228568911554,-0.1639241546688786,-0.21146553374173338,0.7231966722968018,-0.6367085461451335
3.7378843536973,-8.91056023836136,2.2336283393204215,-0.3914755896144176,0.07579230546793073,0.7498550444367604,-0.5279392024661969
3.7007568731904033,-8.842293995618821,2.1725478860735894,-0.5646501606311861,0.35804768298229844,0.6632283722520222,-0.3363037006191221
3.7486631110310555,-8.80756211936474,2.1761408539116385,-0.6501001653351082,0.5807434860834771,0.47990482585612015,-0.0989855369378902
3.827708403468132,-8.803969005346298,2.1725478860735894,-0.6401364893093592,0.718122730790082,0.22613129336887233,0.15293677365697556
3.88399837911129,-8.84588710963726,2.1953033490478995,-0.536241465343415,0.7500001102245152,-0.06077163221155134,0.38242873091323315
3.8935796266794207,-8.898583971261978,2.2384189631044866,-0.35365087267094875,0.6717334479566509,-0.3387677714853277,0.5558251812919334
3.8875912007689477,-8.897385876774788,2.2647673939168453,-0.11914947618669124,0.49482938604470117,-0.5670139188630485,0.6476438039899938
3.8624405720829964,-8.900978990793229,2.312673631757498,0.13280366448191694,0.24529098135084348,-0.7120060967386092,0.6443933886805209
3.8313015174865725,-8.873432757854463,2.3402197185158733,0.3703088418646512,-0.04718941021893999,-0.7521491557993162,0.5430618460455726
3.8301037153601647,-8.871037738323212,2.2827322331070903,0.5474892775127557,-0.32616027715671964,-0.6796138783873235,0.3633179611813221
3.8241155818104744,-8.915350862145424,2.2348259952664375,0.6442496730983457,-0.5572679599421465,-0.5073721372934272,0.1302624037583081
3.7929765272140505,-8.959663985967637,2.2240470917522908,0.6464089784785202,-0.7066504991959239,-0.2606502188856033,-0.1219096711643286
3.7618374726176262,-8.95846647620201,2.2336283393204215,0.5536975212870312,-0.7523243357058983,0.024295942631097158,-0.3561416235108482
3.7247099921107294,-8.92732771396637,2.240814274996519,0.3797471476160232,-0.6875967298057464,0.30567738034480724,-0.538111680028852
3.718721858561039,-8.872235248088836,2.2336283393204215,0.14412464174555195,-0.5170227875598096,0.546989022664717,-0.6424317347935874
3.72830310612917,-8.871037738323212,2.202489284723997,-0.10759429564182202,-0.2734605354304479,0.7016832783239106,-0.6490634637907471
3.765430294275284,-8.881816495656967,2.209675220400095,-0.34360485660945883,0.01022773683598342,0.7534783945260697,-0.5604475041393474
3.7726162299513817,-8.839898391366006,2.2719533295929435,-0.5292324539115056,0.29241109531541354,0.6947346481078699,-0.38955427065003456
3.7690234082937244,-8.790794643759728,2.304290040135384,-0.6371932642247264,0.5316467894950148,0.5340955867272991,-0.16148789268766744
3.7498609131574634,-8.76085339128971,2.2779416093230247,-0.6516223638972044,0.6929205750829633,0.2951181571318852,0.09030307207838936
3.73429123967886,-8.776422772407532,2.228837715536356,-0.5703998091759889,0.7525753821488773,0.012882535083219154,0.3287984065735364
3.7354890418052675,-8.793190248012543,2.2060822525620463,-0.40060520430812563,0.699350898013571,-0.2777388709837329,0.5227665934942075
3.7295006158947945,-8.802771495580673,2.190512725263834,-0.17516994421770413,0.5433796031243519,-0.5206294639587457,0.6348220686217654
3.751058422923088,-8.801573401093483,2.232430683374405,0.07587375441548044,0.3077302852729992,-0.6870682193975153,0.6538214640179884
3.7486631110310555,-8.781213396191598,2.2575814582407476,0.3158314177616562,0.026897303330476057,-0.752741503614442,0.5769811776518188
3.7247099921107294,-8.742888405919075,2.23722130715847,0.5094761788631967,-0.25789469177719654,-0.7080100095590915,0.41550713289694036
3.6911756256222725,-8.739295291900635,2.216861156076193,0.6283719406074572,-0.5048760664434125,-0.5594277262984104,0.19310484416097987
3.683989689946175,-8.752469653487205,2.1953033490478995,0.655088903003485,-0.6778422013376422,-0.32873210385390444,-0.05765139324609501
3.703152185082436,-8.76085339128971,2.189315069317818,0.5828372210186097,-0.7518022021851494,-0.04286380090196103,-0.3053799553950806
3.7630349823832514,-8.772829658389092,2.2144658441841605,0.4256997354967502,-0.7123229417431268,0.2430643409878967,-0.5022902427924856
3.7965693488717083,-8.768039034605026,2.240814274996519,0.20609219228912395,-0.5682381948044415,0.4933030571001435,-0.6255265430807113
3.8049530866742134,-8.76085339128971,2.2719533295929435,-0.04373393649428316,-0.3407394939862411,0.6710751162718195,-0.6569947704186682
3.7965693488717083,-8.801573401093483,2.279139265269041,-0.28716030540424364,-0.06321570238365429,0.7503361059807678,-0.5920628868911653
3.7546515369415285,-8.8542702627182,2.2971041044592857,-0.4884076185585576,0.22359952637856848,0.7194598416013535,-0.4402712644043373
3.7235124823451042,-8.881816495656967,2.2827322331070903,-0.6199602546152045,0.4829644906707416,0.5786500034466224,-0.21807970322757117
3.699559363424778,-8.914153352379799,2.2575814582407476,-0.656528880425187,0.6648088595317291,0.35497378778099076,0.031505863647710075
3.680396868288517,-8.944094604849816,2.2444072428345683,-0.5967873331300321,0.7490963335306507,0.07925589377888334,0.27643817646589786
3.6360834521055225,-8.959663985967637,2.232430683374405,-0.4494917377031425,0.7235059712889464,-0.20810894595416563,0.4808190448180001
3.613328135311604,-8.942897095084192,2.2396166190505027,-0.23623963520483596,0.5917946528442485,-0.46493624322262933,0.6146578018387707
3.598956263959408,-8.890200233459472,2.2348259952664375,0.011664687390567443,0.3733107064696139,-0.6535473913324775,0.6583151667596239
3.631292828321457,-8.850677733421326,2.192908037155867,0.2579475937641954,0.10006462776290893,-0.7463178629922048,0.6053591962799283
3.6720131304860115,-8.81594527244568,2.209675220400095,0.47069651078599484,-0.19460339922844583,-0.7278683811028965,0.4591099340389757
3.7007568731904033,-8.791992153525353,2.218058812022209,0.6087923669134658,-0.4538387971501334,-0.6016210936546764,0.2478996971740206
3.727105304002762,-8.788399624228479,2.2527908344566825,0.6574897801106298,-0.6464966569976176,-0.3869744261833249,0.00023456569885878722
3.776209343969822,-8.819538386464119,2.294708792567253,0.6096249855061051,-0.7441718622600351,-0.1154728687717151,-0.2474502637799012
3.803755284547806,-8.83870088160038,2.279139265269041,0.4721768246877671,-0.7325382304775672,0.17302747241114258,-0.4588009164197294
3.833696829378605,-8.814747762680055,2.2575814582407476,0.2653451810258514,-0.6132669334003006,0.43609096783294077,-0.6027605420717904
3.860045260190964,-8.812352743148804,2.2456048987805843,0.019564970978793752,-0.40389593715247085,0.6350452786657388,-0.6581814171690662
3.88399837911129,-8.819538386464119,2.248000210672617,-0.2348028665754411,-0.1283411652316091,0.741961104599538,-0.6147274830495069
3.904358384013176,-8.867444624304772,2.2635697379708293,-0.44858417125175065,0.16021601930842308,0.7360799943135409,-0.48092547284451526
3.879207755327225,-8.867444624304772,2.3078830079734325,-0.5964527684973514,0.4252280265522609,0.6220577316230977,-0.2765310089560313
3.8360921412706377,-8.83630586206913,2.3258478471636774,-0.6566867245117347,0.6278322351290385,0.4166493423950369,-0.03150485462128133
3.8061505964398386,-8.839898391366006,2.329440815001726,-0.6204206737919776,0.7382316344723621,0.15006187060905918,0.21811390690435858
3.77980216562748,-8.890200233459472,2.3102783198654655,-0.49297428056193465,0.7402384865956579,-0.1385733185092944,0.43568426304416197
3.7750115418434147,-8.983617104887962,2.317464255541563,-0.2931183629291582,0.6335363501982249,-0.4068205727774456,0.5892455683806823
3.776209343969822,-9.027930813431741,2.2911158247292045,-0.04406891118022203,0.42818892972477174,-0.6192723652990444,0.6566687971157691
3.7821974775195124,-9.021942095160485,2.279139265269041,0.20600177611561216,0.16375103802647933,-0.7348858212200717,0.6250533541643981
3.751058422923088,-8.95846647620201,2.265965049862862,0.42584613409066085,-0.12470257412124133,-0.7426062303631552,0.5016376428393304
3.7534537348151207,-8.893793347477914,2.2420119309425357,0.5831847326915304,-0.39479119506643695,-0.6413270384684753,0.30452439899419803
3.7366865515708927,-8.799178381562234,2.2072799085080623,0.6548984597587225,-0.606940682142094,-0.4458886947505758,0.0625642682381127
3.7175240564346317,-8.706959019899369,2.189315069317818,0.6303750247653698,-0.7299510803122394,-0.1849502912621773,-0.1886587879349649
3.715128744542599,-8.648273440003395,2.2000939728319646,0.5092628050240987,-0.7447606395454691,0.11011043294899997,-0.4169636408112754
3.7235124823451042,-8.655459668040276,2.2575814582407476,0.31513181552274355,-0.6482939766132746,0.38226506385119796,-0.5781697671887782
3.7690234082937244,-8.691389054059982,2.267162705808878,0.07471956436412899,-0.45649842183892103,0.5981513360865635,-0.6544013727810083
3.8324990272521973,-8.71294715344906,2.2635697379708293,-0.1767199003703384,-0.19754571813000626,0.7260413619006899,-0.634515332258401
3.892381824553013,-8.72612151503563,2.265965049862862,-0.402231659878726,0.09045856365364187,0.7470934920448472,-0.5214194608922461
3.930706814825535,-8.73450466811657,2.2839298890531063,-0.568648217715236,0.3651121547812622,0.6582356675231877,-0.3317500940777149
3.9247186812758446,-8.742888405919075,2.313871287703514,-0.6515182682323617,0.5860863770720453,0.4725580091844343,-0.09335755312621019
3.9019630721211436,-8.742888405919075,2.355789245814085,-0.6370919580827221,0.7228974965510148,0.21078185021264823,0.1646331013117693
3.8133365321159363,-8.72612151503563,2.362975181490183,-0.5282452669342572,0.7491147471105182,-0.0765675748545727,0.3923282300625195
3.693570937514305,-8.730912138819695,2.3533939339220526,-0.3417605128742863,0.6653283174315557,-0.3527271713608615,0.5622468536571503
3.59177032828331,-8.781213396191598,2.3222548793256284,-0.10511383793137824,0.4838590796349034,-0.5771448224191127,0.649411522907479
3.560631273686886,-8.826724614501,2.2959064485132696,0.14693338804356454,0.23129872403681193,-0.7168585480158746,0.6411125500827088
3.6145256450772285,-8.872235248088836,2.289918168783188,0.37736371268921065,-0.05524033696567957,-0.7512672565298921,0.5386489049310157
3.689978115856648,-8.868642134070397,2.329440815001726,0.552385556462529,-0.3336150274768459,-0.6753055304687253,0.3571185391036973
3.751058422923088,-8.879421476125717,2.3737540850043297,0.6474197505335522,-0.5675805805738064,-0.4949579833738474,0.11711765822909992
3.766628096401692,-8.869840228557587,2.434834538251162,0.6442009226743587,-0.7118840235444914,-0.24501399757324596,-0.13488680158113453
3.7546515369415285,-8.878223381638527,2.461183115243912,0.546385347718839,-0.7516875861364775,0.04089296608232756,-0.367092072880182
3.752256225049496,-8.91056023836136,2.4336368823051453,0.3682925076926291,-0.6812015123718131,0.3207827781937911,-0.5453655081998697
3.741477175354958,-8.989605823159218,2.401300171762705,0.13612918607568805,-0.5107696671860373,0.5536121151068842,-0.6435035491649733
3.718721858561039,-9.02074458539486,2.3545915898680687,-0.11605465711147474,-0.2653383680995526,0.7052604141743175,-0.6470970678156983
3.7067452991008762,-9.017151471376419,2.293511136621237,-0.35630985995276493,0.026009719746418237,0.7532215097438171,-0.5522899016263095
3.661234373152256,-8.94888522863388,2.2252447476983073,-0.5382351709672756,0.307040443508523,0.6880930450406603,-0.37756724983847434
3.600153773725033,-8.897385876774788,2.2000939728319646,-0.6411216228010489,0.5430361602281721,0.5218645309016535,-0.14741846847796797
3.5833865904808047,-8.820735896229744,2.1665596063435077,-0.6498563317881194,0.6992535621510856,0.27900397898795776,0.10434550092263076
3.6396765661239625,-8.764446505308152,2.1773385098576545,-0.5631857565294809,0.752751834045055,-0.00487097450278889,0.34082657406885886
3.751058422923088,-8.714144663214684,2.1809314776957036,-0.3937794039014851,0.6956451656954732,-0.2880315533018598,0.5273076984171827
3.892381824553013,-8.657854687571525,2.232430683374405,-0.16646160259036877,0.5363067412279184,-0.5288509749938892,0.6363821653884947
3.98460147857666,-8.612344053983689,2.285127544999123,0.09151939922047887,0.2917494733795776,-0.6947349214506138,0.6510375052683764
4.042088963985443,-8.593181558847428,2.3258478471636774,0.33018724101088376,0.0091490636475859,-0.7534977419200933,0.5684486198675421
4.060053656995296,-8.636297172904015,2.331836126893759,0.520249381619765,-0.2747916061686835,-0.7014779648867352,0.40219251470141965
4.032507716417313,-8.730912138819695,2.3066853520274164,0.6337391630216861,-0.5183629904634457,-0.5462934881286728,0.17674249120846477
3.9893921023607257,-8.8542702627182,2.319859567433596,0.6539853269130982,-0.6856752690574316,-0.3107741202701729,-0.07464625747944141
3.9151374337077143,-8.970443328022958,2.385730644464493,0.5780976327203431,-0.7521353846224994,-0.029509238452223814,-0.31499951601212056
3.864835883975029,-9.035116456747055,2.448008753657341,0.4173007641025498,-0.7079631743155462,0.2560588142010207,-0.5090010803156028
