5.875700363516808,-5.820607897639275,5.433764880895615,-0.6599727451636475,0.6476580675918351,0.38069520431106735,-0.006794449125866091
5.813422254323959,-5.794259759187699,5.499636104106903,-0.6136194979667979,0.7436747449254039,0.10932758300983836,0.2417983975718971
5.838572883009911,-5.83497976899147,5.512810465693474,-0.47291911517333096,0.7289357915351903,-0.18486392837703153,0.45915732631381495
5.880490987300873,-5.806236026287079,5.480473608970643,-0.26516557514769895,0.6061056433432367,-0.4448863695942572,0.6036549386970285
5.945164116024971,-5.7882710409164435,5.385858643054963,-0.01842146010563166,0.3943874274727581,-0.6395686325250531,0.6595992504157583
5.940373492240906,-5.7834804171323775,5.352324276566506,0.231061727710204,0.12480294008080176,-0.7403981118484018,0.6187449717824662
5.882886006832123,-5.802642912268639,5.379870509505272,0.4466060579370421,-0.1631483392282749,-0.7325815959835136,0.4870830048844235
5.880490987300873,-5.82899163544178,5.375079885721207,0.5965831333107551,-0.4271468558364579,-0.617279535091914,0.2839015747664328
5.897257878184319,-5.805038516521454,5.371486771702767,0.6590142379117956,-0.6284332398458768,-0.41139588565621676,0.03905537800978362
5.876897873282433,-5.763120412230492,5.425381727814675,0.6225909639135843,-0.7389615235572283,-0.13827248025177338,-0.21724888851305268
5.888874140381813,-5.797852288484574,5.494845480322838,0.4946402600390965,-0.7370527373318218,0.14933004948277057,-0.435642986700804
5.878095383048058,-5.8493516403436665,5.53317047059536,0.29412962788292335,-0.6269265753959153,0.41500167348309236,-0.5901054499579169
5.903246011734009,-5.839770392775536,5.4816711187362674,0.050371476124256284,-0.42481825267178425,0.6197711899995414,-0.6579330046718344
5.900850992202759,-5.797852288484574,5.387056737542153,-0.20080114735773028,-0.16039699183991335,0.7336150347402398,-0.6290951319407921
5.867316625714302,-5.778689793348312,5.378672999739647,-0.42251062254593913,0.12759740608798542,0.7397665357165297,-0.5078869445353221
5.854142264127732,-5.753539164662361,5.407416742444038,-0.5821906894183855,0.39677613768725356,0.637322243737267,-0.31215870219205216
5.902048501968384,-5.7834804171323775,5.393044871091843,-0.6569325840793009,0.6118644398513036,0.43577214524077273,-0.064530029076374
5.905641615986824,-5.838572883009911,5.419393009543419,-0.6326167443642395,0.7311151462132247,0.17388751718519554,0.1871625739691934
5.917617883086205,-5.838572883009911,5.452927376031876,-0.5154722272598732,0.7430708321350945,-0.1135225133716758,0.4113961112013355
5.908036635518075,-5.814619764089585,5.415800480246544,-0.3226509717306197,0.6460273319942309,-0.38426044905132184,0.575229470778905
5.879292892813683,-5.754736674427987,5.4062192326784135,-0.0824052770314003,0.454170736086929,-0.5986891420486061,0.6546064649793334
5.888874140381813,-5.73198164999485,5.416997990012169,0.16995988688066474,0.19564011580016047,-0.7252452927667214,0.6378540955899901
5.891269744634629,-5.81581727385521,5.478078589439392,0.402115322052846,-0.09855079818856095,-0.7445296772067574,0.5237046569442886
5.879292892813683,-5.836177278757096,5.546344832181931,0.5694814934871941,-0.37147972081960756,-0.6525784747465774,0.3344173737903161
5.91642037332058,-5.7834804171323775,5.442148618698121,0.6532484855332588,-0.5898210375877446,-0.464926896081133,0.096023648481941
5.906839125752449,-5.777492283582688,5.3678942424058915,0.6411910522971017,-0.7215939613745356,-0.20904865436630515,-0.1564443973735646
5.838572883009911,-5.763120412230492,5.411009856462479,0.5350565387641327,-0.7474834425398421,0.07755193220593047,-0.38596463732531194
5.8565378683805465,-5.7463535213470465,5.42059110403061,0.35037759093453785,-0.663734021587985,0.35272154360016644,-0.5588203692045108
5.918815977573395,-5.813422254323959,5.376277395486832,0.11421085127549632,-0.48260432390915764,0.5761807550074146,-0.6496650564361585
5.915222863554955,-5.846956620812416,5.4062192326784135,-0.1446630380873959,-0.22401023254496982,0.7173181882202544,-0.6436976293065595
5.873304759263992,-5.779887887835503,5.468497341871262,-0.37633696355071466,0.062168561180852705,0.7485814125694756,-0.5423388503708905
5.852944754362107,-5.773899169564247,5.479276099205017,-0.5527223931593966,0.33925017634279114,0.6699352248562571,-0.36137801323313895
5.885281611084938,-5.7846785116195685,5.416997990012169,-0.6479714642160678,0.5664245003271834,0.49302108079792734,-0.12738320485695664
5.92360660135746,-5.793061664700509,5.342743028998375,-0.6481327891997907,0.7104675639842001,0.24378366322413286,0.1254163212483881
5.918815977573395,-5.812224159836769,5.316394890546799,-0.5531163723545618,0.750256168808056,-0.041252608684984225,0.35982798956650275
5.92001348733902,-5.797852288484574,5.34154551923275,-0.37692085479722226,0.6799297435809416,-0.3201876033194289,0.5413927517924915
5.9104322397708895,-5.8613284921646125,5.384661133289337,-0.13941126903983028,0.504706019408612,-0.5569665964955255,0.6446894930318068
5.880490987300873,-5.930792244672776,5.418195499777794,0.11350882592196564,0.2583357644827225,-0.7055553665713223,0.6500538469460444
5.866119115948678,-5.866119115948678,5.4325673711299896,0.34985808139327995,-0.025930952726430933,-0.7505715618387041,0.5599725342671024
5.8493516403436665,-5.765516016483307,5.449334846735001,0.5348103043492664,-0.30639979226523245,-0.6854379769391684,0.3876491782929606
5.8721072494983675,-5.9643266111612325,5.492450460791588,0.6411948405721581,-0.5419019035081164,-0.5197163983738019,0.15844989321324388
5.843363506793976,-6.251764038205147,5.611017960906029,0.653462829273092,-0.6978703163291773,-0.27770522324684765,-0.09403808444687954
5.72120230793953,-6.187090909481049,5.827794125676156,0.5664295604990147,-0.7515361972537751,0.01190402276320297,-0.3379485041426888
5.667307936549187,-5.573891065120697,5.876897873282433,0.39677393934560645,-0.6925441709679339,0.2931292987907863,-0.5263347095764521
5.83497976899147,-4.493605109453202,5.487659837007523,0.16773268716595638,-0.5325338883713667,0.5314849658240947,-0.6370220832083617
6.299670276045799,-4.098378647267818,4.51995354026556,-0.08647828577631066,-0.29460710384132466,0.6921804570109071,-0.6531572363432786
6.194276552796365,-5.761922902464867,4.540313837528229,-0.32723769504606964,-0.012215364709112237,0.7507211556577394,-0.5737456076118294
5.679284788370133,-6.947601996660233,5.349929257035256,-0.5195503846321625,0.27193325838646387,0.6981557628360787,-0.4107289028430621
5.679284788370133,-6.69848955988884,5.787073531150818,-0.635787247967079,0.5152767891429885,0.5431562060573291,-0.18773849289463432
6.027802230119706,-6.11163843870163,5.710423550605774,-0.6582768526106426,0.6858221257750791,0.302611975328869,0.06888823921351168
6.213439047932625,-5.848154130578042,5.684075412154198,-0.58269231906204,0.7509570639800154,0.022516028721676268,0.3098809090847987
6.1020571911334995,-5.7882710409164435,5.781085397601128,-0.42127135830950196,0.706265158792618,-0.261093023134833,0.505519931767303
5.868514135479927,-5.764317921996117,5.766713526248932,-0.1974408351496404,0.5581248467507877,-0.5067555963326317,0.6266678048538804
5.728388535976411,-5.676889184117318,5.569100441336632,0.05574917871639918,0.3281292961469004,-0.6782628393148429,0.6551203819811702
5.656529179215432,-5.582274218201637,5.308011152744293,0.30087646495102843,0.04974390136467024,-0.7503526124271884,0.5864894322486024
5.760725392699242,-4.5091747829318045,4.852901893258095,0.5017832603321905,-0.23591824278821516,-0.7122928025779302,0.4303430094306118
6.128405329585076,-4.536720723509789,4.431327000260353,0.630103577305223,-0.4923575138109566,-0.5644604466973067,0.204787608451614
6.098464077115059,-6.30326339006424,4.790623784065247,0.6618807861330801,-0.6692049452225072,-0.33470284683228885,-0.0453053038833024
5.970314744710922,-7.433850603103638,5.225373038649559,0.596793907359969,-0.7466714599376414,-0.05601244582751902,-0.28841180448281134
6.02061658680439,-7.116471923589707,5.342743028998375,0.4444680725167641,-0.7141457063787303,0.23003705897097668,-0.4894149508076355
6.160742186307908,-6.484109584093094,5.308011152744293,0.22702373428360437,-0.5769870842730921,0.4823198289612654,-0.6188002191699183
6.2014627808332445,-6.122417196035386,5.43855550467968,-0.023863661266670284,-0.35515378763306554,0.6642896915382208,-0.6572788742359611
6.11403345823288,-6.0098378294706345,5.52358922302723,-0.2771173683224571,-0.07411711576440146,0.7499636324072333,-0.5960429241181797
5.937978472709656,-5.851747244596481,5.395439890623093,-0.4836613615956055,0.21183687799218887,0.7223739743619729,-0.4465116634383643
5.8265960311889655,-5.534367980360985,5.102014330029488,-0.6184883105179894,0.4668529620275077,0.5887153136756766,-0.23007564200170216
5.838572883009911,-5.302023019194603,4.781042536497116,-0.661181046142389,0.6533392801018718,0.36816684162473273,0.0209901411641963
5.9643266111612325,-5.652936065196991,4.555883218646049,-0.6055847891260568,0.7431935531556223,0.09294473954280566,0.26887112362317855
6.060139086842537,-6.347576513886452,4.452884807288647,-0.4604492144190012,0.7226810387346675,-0.19609983080947857,0.4767216101151705
6.147567824721337,-6.463748994469643,4.591812897026539,-0.24757783252204038,0.5947086247998703,-0.4557724024298227,0.6142461930005617
6.12361470580101,-6.612258331775665,5.016980611681938,0.007403135180131316,0.3724187850415854,-0.651235033485908,0.6611674321215939
6.0637322008609775,-6.7978951495885855,5.292441771626473,0.25522806413548577,0.09945185160278515,-0.744548892693367,0.6087814968274834
6.254159642457962,-6.636211450695992,5.200222409963608,0.4657084259943381,-0.187585559008596,-0.7280260190233979,0.4668034229033156
6.4098546230793,-6.354762741923333,4.935540007352829,0.6078258684133124,-0.44684865565768483,-0.6046121648172754,0.25557410428188937
6.381110880374909,-6.143975295424462,4.807390967309475,0.6600049782056004,-0.6407163189697304,-0.3922243742822358,0.006005628078095202
6.200264686346054,-5.456520490050316,4.736729412674904,0.613917756170337,-0.7404666996353058,-0.12173986200323497,-0.24493562703169597
6.336797756552697,-4.988236868977547,3.9857989883422853,0.47609353088284756,-0.7310006025953135,0.16686663039567173,-0.4594873192126045
6.354762741923333,-5.9319897544384,3.4636209958791735,0.2623214098479731,-0.6089563902762909,0.43698006416034035,-0.6077894505529576
6.202660290598869,-7.097309428453446,3.54266628831625,0.014983474566041695,-0.39777398876876324,0.6351345304004038,-0.6619331368363236
6.0637322008609775,-7.486547464728356,3.7043499872088432,-0.2339848269480559,-0.12800414802957832,0.7385087576237688,-0.6192502351701676
6.1631377905607225,-7.435048112869263,3.618118759095669,-0.4484724993875949,0.1599961815624122,0.7325426332592417,-0.4864719207067428
6.264938399791718,-7.163180066943169,3.7103381207585335,-0.5974820895498119,0.42416397043914783,0.6187621995860948,-0.28325504269450524
6.288891518712044,-6.626630203127862,4.131913013756275,-0.6595961109972107,0.626036548926645,0.41411654758810473,-0.03897043467913723
6.211044028401375,-5.92240850687027,4.3606654456257825,-0.6253345701889765,0.7363420238541611,0.14891308767955527,0.21114448027515925
6.243380300402642,-5.034945597052574,4.016938042938709,-0.49481347863891023,0.7381324866616092,-0.1448453237083444,0.43513203248190646
6.40626150906086,-5.3678942424058915,3.631292828321457,-0.2932992585949969,0.6305508631639131,-0.4109598111951196,0.5894855277726001
6.448179613351822,-6.611060822010041,3.703152185082436,-0.04874615362209388,0.4301647237926037,-0.616976856043977,0.6572074877978598
6.330809623003006,-7.287736285328865,3.9259161910414697,0.20295945701264503,0.16656171784157542,-0.7321123264811105,0.6285508685645191
6.221822785735131,-7.223063156604767,3.9019630721211436,0.4248541984462256,-0.12126490738873068,-0.7395504278702585,0.507798086778136
6.142777200937272,-6.977543833851815,3.8360921412706377,0.5843910551262195,-0.3912998422045214,-0.63841438035085,0.31272768847740495
6.092475943565369,-6.89011451125145,4.058856147229672,0.658909082957061,-0.6081042294757587,-0.43783199823310287,0.06596368556703697
6.02660472035408,-6.814662625193597,4.462466054856778,0.6344393502043554,-0.7294396769920183,-0.1765624883656767,-0.18501393527022655
6.064929710626602,-6.635013940930367,4.712776293754578,0.5172820091104907,-0.743630290010926,0.11042673885517772,-0.4089489579087969
6.137986577153206,-6.4757258462905884,4.764275353252888,0.324398043616247,-0.6488371548331043,0.3812274668269306,-0.5730984857271524
6.187090909481049,-6.267333419322968,4.581034139692783,0.08376920343933772,-0.45904115503817894,0.5962439265329444,-0.6532664989182669
6.212241538167,-6.219427181482315,4.3223404553532605,-0.16937714732623022,-0.2019754638368826,0.723983284284195,-0.63746803688387
6.200264686346054,-6.329611528515816,4.080413954257965,-0.39777190190598116,0.08470901995407139,0.7455756794998903,-0.5279382559834018
6.193079043030739,-6.442191479802132,3.9582530477643014,-0.5708646789901173,0.3649850497688849,0.6543988007318917,-0.33565107079730416
6.209845933914185,-6.68651329278946,4.06604208290577,-0.6555556652709036,0.5845474598811434,0.4678932426774723,-0.09811702367319328
6.200264686346054,-6.69250142633915,4.287608286738396,-0.6444687250172431,0.7181831005462795,0.21275870511556072,0.15364514298190998
6.160742186307908,-6.244578394889832,4.467256678640843,-0.53921919385805,0.7464582826589642,-0.0734382411581028,0.38294845339876904
6.194276552796365,-5.981094086766244,4.548697282969952,-0.35491662241423333,0.6654645617568915,-0.34897353285409805,0.5562450732789557
6.220625275969506,-5.906839125752449,4.578638827800751,-0.11841861101627307,0.4870400405335998,-0.5735188695013207,0.6479545800501245
6.231404033303261,-5.92240850687027,4.494802911579609,0.13573418560169564,0.237207949205668,-0.7141830922502013,0.644399821878177
6.244578394889832,-6.091278433799744,4.375037316977978,0.3750060418728896,-0.05445518601021551,-0.7498107392600224,0.5423918846791131
6.250566528439522,-6.3272165089845664,4.3582701337337495,0.5531488667229877,-0.3315595394545693,-0.6730756772094167,0.36202725835057414
6.209845933914185,-6.479318960309029,4.416955128908158,0.650043052342821,-0.5599212491667844,-0.497376130180043,0.1286437326862877
6.154754052758217,-6.360750875473022,4.400187945663929,0.6516047113607494,-0.7059032909995351,-0.2486998585370918,-0.12353228020291168
6.1403821814060215,-6.187090909481049,4.330723900794983,0.557664583354419,-0.7482258813825111,0.036308848029387164,-0.3575610583610657
6.182300285696984,-6.054150953292847,4.22173735588789,0.38193548156471446,-0.6808347778819313,0.31587982534022613,-0.5392673076419702
6.273322137594223,-6.137986577153206,4.203772370517254,0.1441364846927079,-0.5085837708894034,0.5539750908923001,-0.6431786846897305
6.339192776083946,-6.337995266318321,4.361862955391407,-0.10973780001419728,-0.2644621764616908,0.7044256422140075,-0.6494627680326045
6.346379004120827,-6.366739009022713,4.499593535363674,-0.3474656030951399,0.018523367044593796,0.7514780728483105,-0.56054013733831
6.302065880298615,-6.287694008946419,4.46845448076725,-0.5341600799246345,0.29881817234049934,0.6883198053160196,-0.3893540220720837
6.243380300402642,-6.284100894927978,4.4480941835045815,-0.6424109487652295,0.5353992108615986,0.5241350056232568,-0.16105388475800161
6.20625340461731,-6.29727525651455,4.457675431072712,-0.6564348370294705,0.6933648618235807,0.28300011288446403,0.09082625848200565
6.209845933914185,-6.275717157125474,4.40378105968237,-0.5742746739036884,0.7494919492542553,0.000518035156916521,0.32934806596584904
6.21822967171669,-6.184695305228233,4.323537965118885,-0.4030454938234185,0.6932046812333897,-0.28842129483167755,0.5232922285992502
6.263740890026093,-6.262542795538903,4.341502950489521,-0.17596683041340297,0.5352064412227144,-0.5280137102638296,0.6354457188788059
6.294879652261734,-6.314042147397996,4.404978569447994,0.07688246446279923,0.2987612697988518,-0.6902109186039973,0.6545530369390475
6.370332123041154,-6.298472766280175,4.388211386203766,0.31859702413104163,0.018559344428158982,-0.7512885459736346,0.5776824453262047
6.372727142572403,-6.269729023575783,4.316352029442787,0.5136283585648923,-0.2643826875947266,-0.7023446490927677,0.4159323234239922
6.30925152361393,-6.158347166776657,4.2840154650807385,0.633241750605083,-0.5087048830307934,-0.5504682468454909,0.19289618058968527
6.266135909557343,-6.172719038128853,4.301980158090592,0.659717392955923,-0.6785035256320283,-0.31776539067103793,-0.0585754524355588
6.2769146668910984,-6.254159642457962,4.372642005085945,0.5863657598491853,-0.7490610486395317,-0.03141154351402716,-0.3067508044351295
6.272124043107033,-6.3272165089845664,4.3965951240062715,0.427685105423179,-0.7064705386373308,0.25314104181904773,-0.5038893148136908
6.311647127866745,-6.30565840959549,4.306770781874657,0.2062949987309146,-0.5601329809015083,0.5004207496831513,-0.627114415789938
6.299670276045799,-6.393087732195855,4.226527979671955,-0.045205741534585626,-0.33155738877491936,0.6741854461036487,-0.6584072623711628
6.287694008946419,-6.49848145544529,4.26365516781807,-0.2899889055836398,-0.05431623019173895,0.7489537010785942,-0.5933165558256711
6.287694008946419,-6.479318960309029,4.365456069409848,-0.49225652625026073,0.2308135647791583,0.7137917339237136,-0.44148609407334904
6.320030280947686,-6.390692127943039,4.493605109453202,-0.6225399212011065,0.48201979925172467,0.5739523618192068,-0.2251214028083554
6.3152396571636205,-6.161939696073532,4.551092594861984,-0.6612893356372572,0.665935636916204,0.34395048091970426,0.030400801511620154
6.316437751650811,-5.946361625790597,4.521151342391968,-0.601053164718606,0.746975166595374,0.06814276272937372,0.27589809270665466
6.337995266318321,-5.9260016208887105,4.462466054856778,-0.4525439576417213,0.7186345672747605,-0.2176775997350715,0.48102472669641805
6.30326339006424,-6.085289715528488,4.490012287795544,-0.23774348145045687,0.5849286304460326,-0.47160437595376087,0.6155695305110617
6.321228375434876,-6.291286538243294,4.537918525636196,0.011842717407089675,0.36543944448736115,-0.6563986534578067,0.6598898167087919
6.385901504158974,-6.383506484627724,4.593010699152947,0.25965402261928505,0.09237906597093508,-0.7449267120461179,0.6075607709423985
6.389494618177414,-6.290089028477669,4.633731001317502,0.4736240667670215,-0.20086182074906822,-0.7225230127917356,0.4618390069394208
6.346379004120827,-6.056545972824097,4.627742575407028,0.6127612018916615,-0.4576755184108951,-0.5933987521692811,0.25086799362920925
6.291286538243294,-5.958338477611542,4.668462877571583,0.6621139580742385,-0.6474570568582005,-0.37735190618084596,0.003163060142419662
6.274519647359848,-5.994267863631249,4.721159739196301,0.6144810267013484,-0.7424027857024522,-0.10610967784847536,-0.24493245573461367
6.359553365707398,-6.106847814917565,4.7007997342944146,0.47682655403718777,-0.7286700093750259,0.18063801733898122,-0.45721588062343427
6.412250227332115,-6.202660290598869,4.631335689425469,0.26936882423263686,-0.608291082510939,0.4408511766551051,-0.6025550891918564
6.361948385238648,-6.183497795462609,4.560673842430115,0.022451375025993547,-0.3988749446384716,0.6365826824117848,-0.6596644622476756
6.31284463763237,-6.183497795462609,4.582231649458409,-0.23335641304818522,-0.12423136661183536,0.7404175299922909,-0.6179751073620646
6.334402152299881,-6.260147776007653,4.687625372707844,-0.4489461725876215,0.1626194249006977,0.7320797951840062,-0.4858615340271705
6.381110880374909,-6.255357152223588,4.772659091055393,-0.5989516993700641,0.4255644097379147,0.6166155955134837,-0.28273132538805196
6.421831474900246,-6.224217805266381,4.820565328896046,-0.6614534287099958,0.6261664059686114,0.41101291951289387,-0.038254067465172716
6.4146452468633655,-6.157149072289467,4.855297205150127,-0.6273258263754403,0.7351543231502812,0.14546085744123508,0.21178188701653308
6.389494618177414,-6.128405329585076,4.830146576464176,-0.5015116391379941,0.73676783689982,-0.14129416806341996,0.4309236456616749
6.3763202565908434,-6.084092205762864,4.800205031633378,-0.3023867024159779,0.6308127072937637,-0.4073635655393863,0.5871052171372192
6.355960251688957,-6.037383477687836,4.799007521867752,-0.05293641251553653,0.4271218786505383,-0.617984534728219,0.6579207793076356
6.361948385238648,-6.003849111199379,4.810984081327915,0.19886000921787506,0.16481539994397934,-0.7324007921686662,0.6299838571788035
6.388297108411789,-5.988279730081558,4.8265534624457365,0.42159598569521356,-0.12145940071426052,-0.7398326905903118,0.5100510060353906
6.432610232234001,-5.9331878489255905,4.822960640788079,0.5828115309197627,-0.38994136219504716,-0.6392706594388174,0.3156096916399954
6.462551484704018,-5.873304759263992,4.834937200248242,0.6589676110068624,-0.6014169425670227,-0.4454415121128052,0.07510797643327069
6.458958370685577,-5.862526001930237,4.868471566736698,0.6390265212995122,-0.7250531896681207,-0.18670342823546002,-0.1763088401443753
6.460156465172768,-5.736772273778915,4.828948774337769,0.5219913742500583,-0.7421323091437194,0.10603985233897015,-0.40684172678017655
6.5068646085262305,-5.628982946276665,4.77026377916336,0.33046596890876245,-0.6492276718706903,0.37646931009428186,-0.5723342834635118
6.5415970695018775,-5.552332965731621,4.790623784065247,0.09064051390745984,-0.46162568921089825,0.5920318883967167,-0.6543579016261454
6.553573336601258,-5.518798599243165,4.8624831408262255,-0.16239521055450792,-0.20666560719070715,0.721228606123472,-0.6408950148835978
6.5787239652872085,-5.53077545106411,4.870866878628731,-0.39165170856922815,0.07833073063414163,0.7452211166146472,-0.5339650954554469
6.6517814165353775,-5.63137855052948,4.856495007276536,-0.563818201237082,0.35187177908627765,0.6605656566294021,-0.349210968210058
6.697292050123215,-5.709226040840149,4.843320645689965,-0.6538052729214925,0.5740702897843715,0.4796625500699574,-0.11360372153818764
6.710466411709786,-5.587064841985703,4.799007521867752,-0.6470876396079772,0.7147979206540165,0.22240746227432265,0.14448681607664643
6.70208267390728,-5.340348009467125,4.657684120237827,-0.5450561675973464,0.7469636247530536,-0.06179313399427267,0.37568700543276523
6.697292050123215,-5.088839968442917,4.492407599687576,-0.36333372026063604,0.6705032372445888,-0.33700608128510356,0.5521240057658702
6.753582025766373,-5.006201854348183,4.424141064584256,-0.12837700759068696,0.49636531700802927,-0.5632643197178231,0.6479769456750736
6.803883283138275,-5.105607444047928,4.456477921307087,0.12539662444047175,0.24972605751657978,-0.7074416292936384,0.649183274521551
6.861370768547059,-5.315197380781174,4.548697282969952,0.36074705913898397,-0.03337655869164726,-0.7482909353160743,0.555705174329223
6.896103229522706,-5.514007975459099,4.628940377533436,0.5434258516602186,-0.31162285440007503,-0.6798418680727141,0.38130640537278937
6.924846972227097,-5.53077545106411,4.596603520810604,0.6481130165210774,-0.5491356289271178,-0.5071900519870418,0.1454573134089522
6.906881986856461,-5.361905524134636,4.531930099725724,0.6550149984371171,-0.7001094293434097,-0.2635306146781687,-0.10655399520532023
6.868556996583939,-5.213396186828613,4.481628549993038,0.5664956117437254,-0.7490283440959028,0.01859868737586632,-0.3430646447011798
6.849394501447678,-5.040933730602265,4.4349201142787935,0.39539733826473655,-0.6887674383468011,0.29799151644716027,-0.5295860807195265
7.023054467439652,-5.109200558066369,4.389409188330173,0.1665712015858155,-0.5280813628428191,0.5339569503658763,-0.6389632885982585
7.088925690650941,-5.124769939184189,4.384618564546108,-0.08666436462289738,-0.2903604834987317,0.6921174000528229,-0.6550981468993886
7.147610685825348,-5.111595577597618,4.375037316977978,-0.3272922301727286,-0.010292053111563839,0.7493544140039069,-0.5755361256464893
7.165575671195985,-4.981051225662232,4.363060757517815,-0.5238705243190838,0.27775367912841287,0.6947852327696201,-0.40704551073011935
7.126053171157837,-5.003806834816933,4.442106049954892,-0.6387643838686942,0.5182704349450239,0.5386619588615987,-0.1822611100540339
7.27695752799511,-5.189443067908288,4.493605109453202,-0.6605713374952468,0.6829791672821605,0.30400773917337764,0.06902361669022439
7.321270651817322,-5.222977434396744,4.503186357021332,-0.5862088872165336,0.7479781005147059,0.025071394009334103,0.3102568724479676
7.258992542624474,-5.154711191654205,4.4756404164433485,-0.42649972944320946,0.7039500558365471,-0.25746223635654786,0.5062267244258016
7.1715638047456745,-4.979853715896606,4.443303559720516,-0.20461675071128843,0.5573715444033854,-0.5025204308693852,0.6284442404673517
7.132041304707528,-4.803798145651817,4.4708497926592825,0.053304574183335965,0.3233234213501422,-0.6775212135336722,0.6584721655388569
7.140425042510033,-4.761880041360856,4.461268545091152,0.29783270146661844,0.04671169505092779,-0.7485572196115036,0.5905724243901509
7.200307547450066,-4.825355952680111,4.454082609415055,0.49896488237788106,-0.23684028096771537,-0.710346409907959,0.43628970351778273
7.213481909036637,-4.894819997549058,4.4756404164433485,0.6271973849369502,-0.4858422578176368,-0.568301379773654,0.21820697191949026
7.159587537646294,-4.9547025024890905,4.529534787833691,0.6637596865140756,-0.66382405952831,-0.34316085637376514,-0.0316436913604385
7.126053171157837,-5.0265618592500685,4.529534787833691,0.6033844441556365,-0.7447776309215323,-0.06780786168150282,-0.2768313329883119
7.150006290078164,-4.995423097014427,4.4864191737771035,0.4549295089899499,-0.7168409953134312,0.21736370417506073,-0.4815923062046455
7.18234256207943,-4.987039359211922,4.451687297523022,0.23427525051126483,-0.5798358293575999,0.4762515701024468,-0.6181342572338332
7.206295680999756,-4.987039359211922,4.454082609415055,-0.01617663388914401,-0.36000547597105953,0.6587934637504294,-0.6603980208227302
7.200307547450066,-4.973864997625351,4.494802911579609,-0.26423713120361414,-0.08755750806858062,0.7450249665813947,-0.6061767237732706
7.199110037684441,-5.020573725700379,4.554685708880425,-0.4736990409489732,0.19780057989736813,0.7223641393606766,-0.4633294717174777
7.172761314511299,-5.086444948911667,4.634928511083126,-0.6138672735359656,0.4542688956348139,0.5940503387747966,-0.25280612322844603
7.2098887950181965,-5.1798618203401565,4.636126313209534,-0.6643409132205212,0.6442214249835111,0.37894633408070266,-0.005438979714493006
7.245818765759468,-5.319988004565239,4.621754441857338,-0.617884684825399,0.7399722805572783,0.1085313018235352,0.24265303787417739
7.2098887950181965,-5.293639281392098,4.639719134867192,-0.47702828255541346,0.7261009247646533,-0.18439248283813592,0.459587725000283
7.18593567609787,-5.042131825089455,4.627742575407028,-0.26889229265441394,0.6051960091530362,-0.44337100523731937,0.6040338377699879
7.1488081955909735,-4.929551873803139,4.655288808345795,-0.021510647447522603,0.39595889746397606,-0.6377018045945397,0.6603712985755575
7.175156918764115,-4.875657502412796,4.631335689425469,0.22906432916713373,0.12904672251898497,-0.739024336939658,0.6202576125459629
7.242225651741029,-4.822960640788079,4.536720723509789,0.4463490312003355,-0.1566671155602378,-0.7326131568551493,0.4893934201144203
7.304503760933876,-4.840925333797932,4.478035728335381,0.5984479068705972,-0.4195335125095955,-0.6193321818874862,0.28684383054555634
7.317678122520447,-4.931947478055954,4.529534787833691,0.6633030275988212,-0.62508882032815,-0.4098507823636807,0.03626839498624304
7.296120023131371,-4.955900596976281,4.541511347293854,0.6287137278442692,-0.7334737787590043,-0.14445965011505446,-0.21416506200075092
7.350014394521714,-4.971469978094102,4.499593535363674,0.5023611273543996,-0.7346612340238311,0.1418903643231014,-0.43332815908737793
7.379956231713296,-4.9391331213712695,4.438512935936451,0.3026646045518945,-0.6285611324374584,0.40747049018531384,-0.5892985996661838
7.395525612831116,-4.763077843487263,4.341502950489521,0.05867647721687039,-0.4307401157893082,0.613527473600676,-0.6592450703709533
7.411094993948937,-4.613370704054833,4.282817662954331,-0.19393025706724726,-0.17005259121354982,0.7300174374853166,-0.6328883887248689
7.4134905982017525,-4.555883218646049,4.279224841296673,-0.4182852830577172,0.11555372250150016,0.7399213955947346,-0.5140049489397082
7.418281221985818,-4.545104461312294,4.348688886165619,-0.5843116666036374,0.3902872817520113,0.6381887820837105,-0.3145962370976741
7.433850603103638,-4.523546654284001,4.343898262381554,-0.6602879132152336,0.6010653345218492,0.4443156696025439,-0.07296520433503026
7.467384969592095,-4.493605109453202,4.3223404553532605,-0.6396492019225017,0.7240500928029272,0.18545955116905055,0.17945784037526363
7.496128712296486,-4.485221664011479,4.260062346160412,-0.5253178538422683,0.7412052240800925,-0.10052756337094179,0.40564784879700116
7.5619999355077745,-4.529534787833691,4.22173735588789,-0.3340345352684978,0.6499168930423153,-0.37184727521423294,0.572502022094187
7.595534301996231,-4.565464466214181,4.192993613183498,-0.09381076806744999,0.4634416159290832,-0.5887814831261848,0.655559130473648
7.587150564193726,-4.60498725861311,4.187005187273026,0.16007995145253315,0.20907164509049098,-0.719498494444156,0.642639380099526
7.595534301996231,-4.640916936993599,4.167842692136765,0.3953489443132217,-0.08288119900917587,-0.7441961915764174,0.5319792735853333
7.57517371237278,-4.652893496453762,4.1414942613244055,0.566937025071227,-0.35594764082468733,-0.6578997323792027,0.34503859020419675
7.5655924648046495,-4.615766015946865,4.091192711591721,0.6555489173368781,-0.5768517142874006,-0.47530778312180066,0.10761146781813541
7.573976202607155,-4.654091006219387,4.113948320746422,0.6482777045546725,-0.7132939150959363,-0.22304220656124474,-0.14560213788515272
7.591941187977791,-4.713973803520203,4.26365516781807,0.546310939430289,-0.7451416552527608,0.061889549108475335,-0.3774625210231086
7.591941187977791,-4.640916936993599,4.401385747790337,0.36451519208619376,-0.6677681926993526,0.3377551200760849,-0.5541983349125069
7.605115549564362,-4.51037229269743,4.393002009987831,0.12933860446590587,-0.49262948785993693,0.5641440630260967,-0.6498685938234559
7.597929321527482,-4.3738395148515705,4.269643593728542,-0.13089212525797503,-0.23885063371875156,0.7104067667051442,-0.6489528889966851
7.595534301996231,-4.346293574273586,4.194191122949124,-0.3661192069351901,0.04477877554405361,0.7480508109160307,-0.551698805383691
7.582359940409661,-4.397792633771896,4.196586434841156,-0.5476118755228074,0.32200243087086766,0.6760287078682211,-0.37339102083160575
7.601522435545922,-4.424141064584256,4.208562994301319,-0.6486664946185922,0.5520114247944903,0.5048242757373061,-0.1402412788086629
7.651823692917824,-4.466059168875217,4.215748929977417,-0.6544956600148335,0.7009952702124419,0.25952336331886294,0.11352834911685554
7.674579302072526,-4.537918525636196,4.187005187273026,-0.5642676924291934,0.747063693046864,-0.023786276472636134,0.35061663232565193
7.6542192971706395,-4.6241497537493705,4.216946732103825,-0.38630818593871924,0.6807258597093401,-0.3100229145372781,0.5396888750581463
7.636254311800004,-4.66007943212986,4.262457658052445,-0.1550206087698382,0.5146238183643405,-0.5437064145297619,0.6446039646386966
7.6158943068981175,-4.675648813247681,4.331921702921391,0.09881505287175806,0.2730076588120534,-0.6975161970703496,0.6551133935285023
7.607510569095612,-4.698404422402382,4.383420762419701,0.33813923461574863,-0.008678321691777235,-0.749004182192529,0.5697185970320706
7.625475554466248,-4.706787867844105,4.401385747790337,0.5279414096968944,-0.28909483766838234,-0.6906679920029494,0.4008488088835507
7.605115549564362,-4.621754441857338,4.349886395931244,0.640306832942971,-0.5271484872721846,-0.5311771652285141,0.1731255359356027
7.542837440371514,-4.5115700948238375,4.353479509949684,0.6586790054936277,-0.6880593864675775,-0.29375928507005294,-0.08013570272305441
7.493733108043671,-4.372642005085945,4.321142653226852,0.5770635633305917,-0.7483514584239525,-0.006288223930899988,-0.32699877184897574
7.5272674745321275,-4.303177960216999,4.2816201531887055,0.41125002380807024,-0.6960663774722397,0.2756599477657127,-0.5199775084254509
7.5619999355077745,-4.36785138130188,4.266050479710103,0.18476471544531062,-0.5415353845260888,0.5172049470271459,-0.6364750348625166
7.55960433125496,-4.503186357021332,4.321142653226852,-0.06889575598879893,-0.3073036616734543,0.6827399610820455,-0.6593056801442759
7.541639345884324,-4.6241497537493705,4.361862955391407,-0.312389107060258,-0.02776744230030187,0.7478078043650165,-0.5851713447093658
7.5619999355077745,-4.645707560777664,4.31874734133482,-0.5099473615669956,0.2558594058083427,0.7027810243582845,-0.42495703864294565
7.567988069057465,-4.589417585134506,4.2564692321419715,-0.6324700122805973,0.5017661456811304,0.5543438201173568,-0.20227542537782298
7.567988069057465,-4.499593535363674,4.252876410484314,-0.6613768950526023,0.6769574300236961,0.31804063989888526,0.05620846910385778
7.5655924648046495,-4.382223252654076,4.287608286738396,-0.5912941057533709,0.7472644396870498,0.03963199230584874,0.30066001208406473
7.596731811761856,-4.331921702921391,4.402583257555962,-0.4343095798219924,0.7075389155327056,-0.24468312109167153,0.5008932442491969
7.621882440447807,-4.311561405658722,4.4325248023867605,-0.21337857871908364,0.5636643179093416,-0.4930397278917803,0.6274264463505023
7.647033069133759,-4.323537965118885,4.295992024540902,0.039027370378787396,0.3368963885687005,-0.6688536382650085,0.6615228630291966
7.668591168522835,-4.306770781874657,4.103169271051884,0.2857985738135539,0.06054301812959049,-0.7463208289662991,0.59804593336378
7.66739365875721,-4.339107638597489,4.0289146023988724,0.4944163514004373,-0.23147330958787835,-0.7119157246822062,0.44175624428696286
7.637451821565628,-4.325933277010918,4.012147419154644,0.6247130113758015,-0.4823943138288119,-0.5720968913391051,0.22301239051572813
7.679369925856591,-4.201377058625221,3.995380235910416,0.6629180290588145,-0.6622756698041601,-0.34800138956332344,-0.028734244312734292
7.728473673462868,-4.178621741831303,4.0540655234456064,0.6033986015239509,-0.7445270773838786,-0.07264248791314494,-0.2762474030121354
7.6733817923069,-4.264852969944477,4.080413954257965,0.4548550676123316,-0.7170648183651134,0.21352974190424,-0.4830424029551619
7.6386499160528185,-4.201377058625221,3.9834036764502527,0.23906804035967455,-0.5839073282949879,0.4682555971948942,-0.6185752983571581
7.686556153893471,-4.2229348656535155,3.917532745599747,-0.01201648284504181,-0.364554202475867,0.6539568410489153,-0.6627943026630081
7.685358059406281,-4.449291985630989,4.080413954257965,-0.2667255734631419,-0.08416576048896489,0.744102606999949,-0.6067000111075916
7.601522435545922,-4.500791045129299,4.390606698095799,-0.4758925264846654,0.2026723080439667,0.720736582128211,-0.4615073325206416
7.56918557882309,-4.4121645051240925,4.499593535363674,-0.6147928961704673,0.4595603442313229,0.5909090760941252,-0.24831522027033376
7.5775693166255955,-4.275631727278233,4.349886395931244,-0.6628512691030837,0.6487214517219487,0.373879429908505,0.0016867173710682312
7.630266178250313,-4.316352029442787,4.161854558587074,-0.6128716843329313,0.7421747177794227,0.1015789472102925,0.25148897454083113
7.643440539836884,-4.469651990532875,3.9666364932060243,-0.4721425155533575,0.7260158031022231,-0.18585897902866005,0.46415400307140064
7.55960433125496,-4.589417585134506,3.802557774782181,-0.2615438077197172,0.6024855910340781,-0.44594233776662556,0.6080636320542662
7.510500583648682,-4.673253501355648,3.7534537348151207,-0.006273288286816809,0.3838369254608097,-0.6437816627102819,0.6619479067606817
7.524872455000878,-4.789426274299622,3.846870898604393,0.24424736161672986,0.11246975492851972,-0.7406386124852005,0.6157501329805641
7.535651212334633,-4.988236868977547,4.040891161859036,0.4585170734885711,-0.17562609868969875,-0.7277994138480907,0.47877508287387727
7.545232459902763,-5.163094929456711,4.151075508892537,0.6049662203269066,-0.43768155364049144,-0.6073005766236498,0.27136090267170926
7.558406821489334,-5.206210543513298,4.1630520683527,0.6621943205667659,-0.6349904623004592,-0.397122984530284,0.024065114882925127
7.511698093414307,-5.1307580727338795,4.142692063450814,0.6217819583883204,-0.7385825075064711,-0.12835033509581995,-0.22673611822784048
7.433850603103638,-5.073270587325096,4.242097360789776,0.4897074801211826,-0.7331781539756519,0.15948111150423447,-0.44407449095798196
7.356003112792969,-5.111595577597618,4.439710738062859,0.2798937902090089,-0.6156302789350063,0.4297125408501644,-0.5983359909757539
7.305701270699501,-5.128363053202629,4.630137887299061,0.032966516803226265,-0.4086158858170373,0.6296966055123394,-0.6598700263188636
7.272166904211045,-5.0612943202257155,4.719962229430676,-0.2188468716666158,-0.14121454903667793,0.736842450845798,-0.6238811589827516
7.247016275525094,-4.988236868977547,4.691218486726284,-0.43832227504762217,0.14706948371715833,0.7352504716312479,-0.49563181306517506
7.201505057215691,-4.909191868901253,4.576243515908718,-0.5929789482063598,0.4135530250383893,0.6251778538194732,-0.2941130965451111
7.144017571806908,-4.906796264648437,4.439710738062859,-0.6599969879293505,0.6190160527369754,0.422865570578335,-0.049069456870625035
7.130843794941902,-4.978655621409416,4.3738395148515705,-0.6274321127621852,0.734662240446562,0.1513142746430573,0.2090557978771786
7.1488081955909735,-5.129560562968254,4.418152931034565,-0.5017748507929922,0.7377942252784605,-0.13682198614063235,0.4303038744491609
7.177551938295364,-5.224175528883935,4.472047302424908,-0.301919285854301,0.6319557519863269,-0.4047292529534299,0.5879378403916383
7.249411295056343,-5.2529192715883255,4.478035728335381,-0.057436185262887844,0.4328073426530012,-0.6127879254846684,0.6586879740425593
7.305701270699501,-5.357114900350571,4.505581668913365,0.19548731725957927,0.16976400935104252,-0.7302843214109646,0.6321785347677022
7.308096874952317,-5.425381727814675,4.541511347293854,0.41949197840538593,-0.1182507058389961,-0.7399280700921272,0.5123960399064913
7.220667552351952,-5.449334846735001,4.541511347293854,0.5814911035912865,-0.38872715221280185,-0.640452374906461,0.31714358428539435
7.151203799843788,-5.3834636235237125,4.469651990532875,0.6582838399496772,-0.6060844754275512,-0.44107476564310144,0.069116176252025
7.117669433355331,-5.381068019270897,4.438512935936451,0.635278576501771,-0.7281042863881317,-0.18036006218683753,-0.18372677091015607
7.096111333966255,-5.384661133289337,4.503186357021332,0.5186822447064027,-0.7428618120247767,0.1069459623873206,-0.4094967867891547
7.093716314435006,-5.4062192326784135,4.615766015946865,0.3256901781083507,-0.6481653413014592,0.37850463163159714,-0.574927684194058
7.079344443082809,-5.414602385759354,4.638521625101567,0.08472930605658935,-0.4580457788032084,0.5942935323482625,-0.6556143734122643
7.112878809571266,-5.381068019270897,4.555883218646049,-0.16876001607052865,-0.20054142118874047,0.7225556948661901,-0.6397002916834666
7.130843794941902,-5.498438594341279,4.518756030499936,-0.39734891946871514,0.08651433333787019,0.7444269823848335,-0.5295824527130398
7.144017571806908,-5.62778543651104,4.512767604589462,-0.5704074024174899,0.3668935672990045,0.6534386412639003,-0.3362178574155907
7.167970690727234,-5.565507327318191,4.462466054856778,-0.654797330416801,0.5861439837550173,0.46719432934482846,-0.09698012690682883
7.175156918764115,-5.44574173271656,4.481628549993038,-0.6428432397866172,0.7191401645393191,0.21233273822184132,0.15654009418108203
7.151203799843788,-5.44574173271656,4.543906659185887,-0.5362997721547376,0.746421525746457,-0.07376226134633272,0.3870356431779677
7.117669433355331,-5.381068019270897,4.5139654067158705,-0.35082098583145693,0.6639914463704464,-0.3489235017813374,0.5606178600007106
7.08293755710125,-5.2457330435514455,4.427734178602695,-0.11362987615389085,0.48403539651565325,-0.5727948475161754,0.6516932168007482
7.047007586359978,-5.171478667259216,4.349886395931244,0.14627571705490003,0.2263639019895177,-0.7147865442745007,0.6453239454725603
7.036228829026222,-5.182257424592972,4.401385747790337,0.37871433547823025,-0.059294438073774096,-0.7470865494926279,0.5430665790526951
7.061379457712174,-5.297232395410538,4.554685708880425,0.5554298611806807,-0.3361891121285026,-0.6694164099316986,0.36104877829625065
7.08173946261406,-5.347533652782441,4.657684120237827,0.6505022435026199,-0.563561540532695,-0.4933447082540328,0.12592148374370812
7.178750032782555,-5.24453553378582,4.587022273242474,0.6498941136186813,-0.7080371924799111,-0.24487130167188384,-0.12790238764961073
7.196714433431626,-5.304418038725853,4.4349201142787935,0.5535911967244164,-0.748469359422495,0.039618160930291614,-0.36298871365293156
7.128448190689087,-5.287651147842407,4.388211386203766,0.37578339517320997,-0.6788264121582311,0.3183324432957922,-0.54465218039939
7.109285695552826,-5.343941123485566,4.3582701337337495,0.13669842365423981,-0.504343982224472,0.5550041747603381,-0.6472411100687312
7.151203799843788,-5.3559173905849455,4.293596712648869,-0.11744533398624152,-0.2587888521079656,0.7036295484898031,-0.6512606099262703
7.236237518191338,-5.360708014369012,4.216946732103825,-0.3542707597454001,0.02463948005943594,0.748843319663214,-0.5595701988201258
7.28414375603199,-5.505624237656594,4.185807677507401,-0.5389317911533666,0.3043583058845823,0.6841282301042665,-0.385858926160449
7.285341265797616,-5.611017960906029,4.164249870479107,-0.6445010189047129,0.5393125318279438,0.5191304590730199,-0.15576904733211872
7.241028141975403,-5.534367980360985,4.100773959159851,-0.6556755686737719,0.695195413825419,0.27820726322608014,0.09692060631612183
7.212284399271011,-5.485264232754708,3.9893921023607257,-0.5709443185826899,0.7493876937539463,-0.003358454498502319,0.3353049213949459
7.220667552351952,-5.395439890623093,3.9271139931678776,-0.397900807717536,0.6914185075990028,-0.2908004732201314,0.528252287588277
7.229051290154457,-5.3942423808574675,3.856452146172524,-0.16993126476034226,0.5323845211647333,-0.5286429587535777,0.6389262156473244
7.261388146877289,-5.478078589439392,3.840882765054703,0.08278986960534104,0.2955232315760759,-0.6891986255619336,0.6563665984898266
7.3021081566810615,-5.545147322416306,3.8624405720829964,0.32334410120602614,0.015520065531533303,-0.7489774586074899,0.5781353529053813
7.354805018305779,-5.626587926745415,3.7917787250876427,0.5166732738716696,-0.26661864283468056,-0.6994391774308777,0.415629720345575
7.395525612831116,-5.583472312688828,3.6875828039646152,0.634685863493624,-0.5098236118917338,-0.5479015617398868,0.19250355342697623
7.388339384794236,-5.487659837007523,3.6253046947717666,0.660173060810231,-0.6786472224995136,-0.3165002774299934,-0.058626372571430004
7.3739675134420395,-5.44574173271656,3.555840649902821,0.5865050543254288,-0.749013601326114,-0.032019920586974546,-0.30653738917922374
7.354805018305779,-5.460113604068757,3.5139225456118584,0.4279872197314306,-0.7072024375608513,0.25080242860167684,-0.5037755391660567
7.323666256070138,-5.472089871168137,3.6253046947717666,0.20725303630729944,-0.5622426797604939,0.49703820922119213,-0.6276004832465747
7.329654389619828,-5.543949227929115,3.6875828039646152,-0.04363802737420424,-0.3353314335920638,0.6708484164397832,-0.6600082987146563
7.36199124634266,-5.492450460791588,3.575003145039082,-0.2882477622306454,-0.059668708203500606,0.746975238219894,-0.5961382946235576
7.400316236615182,-5.347533652782441,3.4444585007429125,-0.49094506973727087,0.2246830755736187,0.7143654805191689,-0.44516560322430865
7.419478731751442,-5.258907405138016,3.361820386648178,-0.6239818366300071,0.4817768955880359,0.5733333855210913,-0.22321854645239872
7.442234340906143,-5.287651147842407,3.327088218033314,-0.6618174399803536,0.6619542922465218,0.3508351788442011,0.026997562845837996
7.425466865301132,-5.24094241976738,3.318704772591591,-0.6028424513098656,0.7455828204294923,0.0771502034370738,0.2733771806291337
7.461396836042405,-5.208605563044548,3.2600194850564006,-0.45574283932591614,0.7203614764355105,-0.2077404126790903,0.4798142647011704
7.521279340982438,-5.43017235159874,3.2875657179951667,-0.24225373927391503,0.5898757068856328,-0.46228615138847,0.6161584946005513
7.5272674745321275,-5.613413565158845,3.35104133695364,0.006591727810944636,0.37314461834219803,-0.649357900523802,0.6626114698328438
7.542837440371514,-5.553530475497246,3.307925722897053,0.25460755099372145,0.1019748494766971,-0.7415957239500541,0.6122188393623473
7.635056802034378,-5.440951108932495,3.210915737450123,0.4698238280138748,-0.1908229998860839,-0.723894462613096,0.46779157788801784
7.688951173424721,-5.402626118659973,3.135463266670704,0.6109262706899097,-0.4488564731196609,-0.599363565646052,0.2570219338802607
7.587150564193726,-5.352324276566506,3.1450445142388346,0.6625307137823264,-0.6412846979636727,-0.38695665817151487,0.00845778632123618
7.487744974493981,-5.343941123485566,3.238461678028107,0.6169700653358717,-0.739757720348719,-0.11756964086574251,-0.24142044903159465
7.419478731751442,-5.193036181926727,3.29954227745533,0.4808673782183587,-0.7295857551917202,0.1692276719127043,-0.4558872508041164
7.407501879930496,-5.14992056787014,3.331878841817379,0.2742768825167949,-0.6121566298006224,0.4313260318527427,-0.6033194067442045
7.445826870203018,-5.389451757073402,3.384575703442097,0.0277517604317467,-0.4045029562293654,0.6301039428815667,-0.6622508734307161
7.405106860399247,-5.7834804171323775,3.5055391001701355,-0.228198300545211,-0.13043664154187157,0.7374803883316442,-0.622120964923834
7.432653093338013,-5.958338477611542,3.5965609520673754,-0.44471431714060455,0.15665614934511554,0.732604519043583,-0.4908957584655291
7.518884321451187,-5.939175982475281,3.5007484763860703,-0.5962745532756808,0.4206097711798613,0.6203724726810388,-0.28754490543830863
7.617091816663742,-5.799050382971764,3.3594250747561456,-0.6604047265273698,0.6228687023460897,0.4173155032673813,-0.041808462668465676
7.595534301996231,-5.73198164999485,3.230078232586384,-0.6274686279512693,0.7339840325222206,0.15287702846351317,0.2101884276251607
7.512895603179932,-5.654133574962616,3.2648101088404657,-0.5023241060898858,0.7373526122484095,-0.13434140431822997,0.4312006548432524
7.356003112792969,-5.4325673711299896,3.457632862329483,-0.29823729915537356,0.6284446229767034,-0.40779704566090585,0.591450284296503
7.536848722100259,-5.613413565158845,3.3678085201978685,-0.05442899470367382,0.42858433761296766,-0.6142978077591131,0.6602962618936661
7.96800486266613,-6.264938399791718,3.0671970239281654,0.19758791301768217,0.1660586941491399,-0.7306033583767929,0.6321410123187317
7.921296719312668,-6.5907008171081545,3.0588132861256603,0.4207684410637419,-0.12086565829730618,-0.7395181082579879,0.5113300100792776
7.476966217160225,-5.770306640267372,3.3414600893855098,0.5823417798413899,-0.3901751568059843,-0.6396329885200965,0.3154537025609905
7.322468746304512,-5.122374334931374,3.4863766050338745,0.6582026938007284,-0.6021326056502999,-0.4459279680995645,0.07316957258887773
7.490140578746796,-5.009794968366623,3.413319446146488,0.6373457335281748,-0.7255098249523835,-0.1870595372424471,-0.1800961947894411
7.629068668484688,-5.082851834893227,3.2456476137042047,0.5191014315376078,-0.7414272293743623,0.10599102633630214,-0.41180732103016393
7.4015137463808065,-4.943923745155335,3.285170406103134,0.32654606988778806,-0.6467145620538984,0.37688460591513906,-0.5771359746996061
7.339235637187958,-4.618161327838898,3.3342741537094116,0.0862048553314863,-0.45709156299333764,0.5926340132804943,-0.6575872202686427
7.4757687073946,-4.746310660243035,3.29954227745533,-0.16687300234573704,-0.2005096605872044,0.7213674538729093,-0.6415436646029948
7.5548137074708945,-4.650498184561729,3.19893917798996,-0.39589199851131607,0.0853093573718978,0.7442679485551656,-0.5310904440987386
7.491338088512421,-4.838530021905899,3.212113247215748,-0.5669291742314188,0.358877398651559,0.6578224448500023,-0.34215194752322736
7.279353132247925,-4.698404422402382,3.377389767765999,-0.654303448279748,0.5799284725996718,0.47440151595955,-0.10253373051207937
7.407501879930496,-4.820565328896046,3.339064777493477,-0.643415162497825,0.7176647291921475,0.21427932697054877,0.15829919511642346
7.437443717122078,-4.9487143689394,3.6097350212931634,-0.5369200184808701,0.744680236164331,-0.07223656873628022,0.3898077959173559
7.014670729637146,-4.485221664011479,4.178621741831303,-0.3514904321296851,0.661557663388383,-0.3482634367152976,0.5634789372999138
7.164378161430359,-4.384618564546108,4.372642005085945,-0.11446344811618707,0.4809671325216927,-0.5728405693601966,0.6537755108401501
7.505709959864617,-5.165489948987961,4.181017053723336,0.1391934479517712,0.22953804250827659,-0.7127708325050502,0.6479932186518804
7.46618745982647,-5.535566074848175,4.282817662954331,0.3721779910624497,-0.0558425639258087,-0.7475641425491817,0.5472778122650486
7.294922513365746,-5.359510504603386,4.439710738062859,0.5535036919698502,-0.3394175170746693,-0.6692976949419344,0.36120632279076337
7.2865387755632405,-5.04692244887352,4.375037316977978,0.6485360426451233,-0.5660109661058973,-0.49319372810556766,0.12566835001464394
7.281748151779175,-4.8517043834924705,4.336712326705456,0.6482876528342959,-0.7094850528245993,-0.24465185362736852,-0.12845057227497136
7.306898780465127,-4.971469978094102,3.918730255365372,0.5525420235798817,-0.7488221428143371,0.03970353253377568,-0.36384933710745343
7.442234340906143,-5.535566074848175,3.2827750942111016,0.37513417462681037,-0.6783018194841127,0.3183622995071875,-0.5457347697958229
7.455408117771149,-6.143975295424462,2.7067024379968645,0.1423269931727062,-0.5078695325183569,0.5505866309404656,-0.6470439913820618
7.138029438257218,-5.761922902464867,2.869583646655083,-0.11120837567705717,-0.26200305569391996,0.701764560923437,-0.653080084689661
6.888917001485825,-4.910389378666878,3.3031350991129877,-0.35306953783398076,0.029804199427136982,0.7491401306541271,-0.5596808695977773
7.256597523093224,-4.8265534624457365,3.4552375504374506,-0.5370371492664707,0.3103469697451751,0.6834389759487643,-0.3849506784405428
7.5392443263530735,-4.902005933225155,3.746267799139023,-0.6421728155825929,0.5449597853930893,0.516845406845914,-0.15330927125691024
7.503314355611802,-5.1080024635791785,3.949869309961796,-0.6523779731139471,0.6993134725512888,0.27406055157288434,0.10126431442301054
7.5272674745321275,-5.506822332143784,3.745070289373398,-0.5656875315487956,0.7507163807348111,-0.008993483990099662,0.3410889174282513
7.399118726849556,-5.651738555431367,3.607339709401131,-0.395005647128737,0.6914310521155531,-0.2908212868247083,0.5303928902581628
7.219470042586327,-5.678086693882943,3.741477175354958,-0.16584009287409088,0.5298651570351077,-0.5299426430749758,0.6410154241563788
7.086530086398125,-5.7727016597986225,4.159459246695042,0.09356719444456513,0.28332478380324994,-0.6933938404914871,0.6558789743352662
7.017066333889962,-5.881688497066498,4.315154519677162,0.3330392887480212,0.00012805126799494596,-0.7491244786097401,0.5726232018533393
7.015868824124337,-5.836177278757096,4.232516113221646,0.5234257517673357,-0.28271504906196787,-0.6941994943545133,0.4051971686211867
6.912870120406152,-5.650541045665741,4.176226429939271,0.6368293075174575,-0.5236689969584672,-0.5369771642259095,0.1785349820378319
6.78951141178608,-5.359510504603386,4.0672395926713945,0.6568785902532088,-0.6874369379398558,-0.30075743779304764,-0.07406711574641507
6.829034496545792,-5.2565118008852005,4.159459246695042,0.5806091444643802,-0.7501566431823241,-0.020240388869342537,-0.31582963558251725
7.014670729637146,-5.3559173905849455,4.321142653226852,0.418747581232715,-0.7027501583744407,0.26338083001153273,-0.5112956253469076
7.178750032782555,-5.490054856538773,4.415757619142533,0.18892396827224747,-0.547428543721297,0.5135946230508533,-0.6331273860011892
7.1488081955909735,-5.53915860414505,4.546301971077919,-0.06429227358077802,-0.31385373661733457,0.6818208605936313,-0.6576341305228242
7.017066333889962,-5.606227337121964,4.875657502412796,-0.3079497234278515,-0.03383131715512453,0.7496374288763488,-0.584864202228104
6.852987615466118,-5.7727016597986225,5.113991181850434,-0.5059201544777326,0.25139000154207997,0.7070013639529561,-0.4254373464877762
6.764360783100129,-5.9487572300434115,5.303220528960228,-0.6288399103624918,0.4995212259546678,0.5601806643583639,-0.2030678094505899
6.906881986856461,-6.11523155272007,5.087642458677292,-0.6587745111356272,0.673871295140539,0.33086640446850885,0.049406917103873745
7.030240695476532,-6.219427181482315,4.680439437031747,-0.588691603280138,0.7491984508172116,0.04591639426217386,0.3000592645770355
7.002694462537766,-6.282903385162354,4.246887984573841,-0.4323627381639627,0.7108556079737061,-0.23944758038970912,0.5004114542106396
6.872150110602379,-6.21583465218544,4.0672395926713945,-0.21231316612296544,0.5676379955518144,-0.4895154073974077,0.6269648247049513
6.767953897118569,-6.131998443603516,4.07203021645546,0.03894498110984456,0.340814165499554,-0.667318030973156,0.6610715835515142
6.837417649626732,-5.984686616063119,4.1462848851084715,0.28447553849067103,0.06409093812768069,-0.7466583339521194,0.5978857348943876
7.027845091223717,-5.868514135479927,4.189400499165059,0.48835561039355313,-0.2218172417537803,-0.7160651140535144,0.44671765299058025
7.175156918764115,-5.808631630539894,4.266050479710103,0.6205144961140742,-0.4748636958146657,-0.5801825374262296,0.2299009651462885
7.18593567609787,-5.715214174389839,4.2456904748082165,0.66112719727659,-0.6614858980221278,-0.3530254297871244,-0.02683806369089079
7.247016275525094,-5.509217351675034,4.032507716417313,0.6023751926313283,-0.7455581815969193,-0.07858057847320071,-0.27406608298562307
7.344026260972023,-5.450532356500626,3.747465601265431,0.4548404777054366,-0.7202554288506211,0.20735812024174974,-0.48099362472043855
7.304503760933876,-5.515205485224724,3.541468778550625,0.24022504728152594,-0.5891243229391967,0.46303051788853744,-0.6171119819642902
7.193121904134751,-5.527182337045669,3.4300866293907166,-0.00969380986496463,-0.3712765009055163,0.6506294065774734,-0.6623753959970908
7.098506938219071,-5.573891065120697,3.370203832089901,-0.258004578742152,-0.09881412344138976,0.7423999985417667,-0.6103373235529508
7.052995719909668,-5.704435417056084,3.4408656790852548,-0.4683441291029375,0.18816013912683574,0.7248538839807718,-0.4688671300662596
7.078146933317185,-5.686470431685448,3.6049443975090982,-0.6122971769779777,0.452930956829809,0.5965308543738872,-0.25317317233465514
7.181145052313805,-5.585867332220078,3.6672225067019464,-0.6624094086798612,0.644199355678605,0.38235952520758204,-0.004707326066806606
7.267376280426979,-5.6349710798263555,3.703152185082436,-0.6154786876269333,0.7408564604778624,0.11197095240404879,0.2444998892903054
7.199110037684441,-5.796654778718949,3.7738140320777895,-0.47834638313213856,0.7287256801789945,-0.1749891211917857,0.45773619941685817
7.08173946261406,-5.855339773893356,3.861242769956589,-0.2710934552995088,0.6095266878902755,-0.43640848569630813,0.6037658394241422
7.023054467439652,-5.82539852142334,3.9450786861777307,-0.02408090560196795,0.4007794780242431,-0.6337879178694216,0.6611420385535528
7.031438205242157,-5.74036480307579,3.9331021267175674,0.2322452287818983,0.12638262297781433,-0.7394246683397455,0.6191451737419493
7.061379457712174,-5.7116210603713995,3.937892750501633,0.44852023777844496,-0.16066585288110283,-0.7326553971946215,0.48603718888861436
7.018263843655586,-5.7188072884082795,3.967834295332432,0.598895185451968,-0.42406948926885213,-0.6182278325594799,0.281574097108586
6.994310724735261,-5.625389832258225,3.904358384013176,0.661304593257835,-0.6251257659626809,-0.4130584300636147,0.03573156894180473
7.08293755710125,-5.514007975459099,3.785790591537953,0.6265560583521658,-0.7343771686177885,-0.14732933502857468,-0.21543385758778846
7.120064452886582,-5.593053560256958,3.745070289373398,0.49980605535092776,-0.7358181011058138,0.1400455112263104,-0.434917100037399
7.112878809571266,-5.776294773817063,3.7211171704530717,0.2996355801990013,-0.6292292884349254,0.4068891880925648,-0.5905338349898833
7.191923809647561,-5.946361625790597,3.731895927786827,0.04937055331462114,-0.42464300964415647,0.6179344054298573,-0.6598469014944375
7.250609389543533,-6.006244715452195,3.833696829378605,-0.20267975945130434,-0.16156687332513694,0.7322485669038965,-0.6297849607762085
7.2326444041728974,-5.881688497066498,3.8971724483370784,-0.4249943849230018,0.12521086799399378,0.7391274073477627,-0.5073388286219422
7.207493775486946,-5.717609778642655,3.904358384013176,-0.5849079965278352,0.3935801305765781,0.6376376020701586,-0.3104764159148578
7.169168785214424,-5.71281915485859,3.8744171315431597,-0.6589966288402576,0.604263770768323,0.4426643166421286,-0.06809582429033877
7.106890676021576,-5.769108545780182,3.808545908331871,-0.6364258155156607,0.7263502137572622,0.18286869571909833,0.1842188601799544
7.121262547373772,-5.81581727385521,3.7295006158947945,-0.5205459580923344,0.741991458355809,-0.1036533859603814,0.4095565367805791
7.190726299881936,-5.867316625714302,3.703152185082436,-0.32301939363387216,0.6454708741977387,-0.38099838281672155,0.5778114348036523
7.2709693944454195,-5.868514135479927,3.6552459472417835,-0.08192580244971123,0.45532399703250215,-0.595444027366033,0.6568216126875209
7.269771884679795,-5.808631630539894,3.676803754270077,0.17117070794974235,0.1984877843018546,-0.7225926367835305,0.6396585569576548
7.146413176059723,-5.739167293310166,3.784592789411545,0.39913366173791687,-0.08751830662327341,-0.7439125353379404,0.5287976984070131
7.088925690650941,-5.638564193844796,3.867231195867062,0.5685688224695831,-0.36071383746769725,-0.6562931500088852,0.34043255253617305
7.1488081955909735,-5.583472312688828,3.9259161910414697,0.6546843568440284,-0.5810407925605698,-0.4725927057086593,0.10215735311407699
7.296120023131371,-5.652936065196991,3.8444755867123606,0.6449145017405497,-0.7161989144012024,-0.21977807372680924,-0.15113569652537653
7.409897484183312,-5.830189145207405,3.631292828321457,0.5371133193236868,-0.7458951617899934,0.07201635232170157,-0.38725099718612427
7.365584360361099,-5.924804111123085,3.4552375504374506,0.3522261301129189,-0.6642786709552589,0.3465307574224081,-0.5608805886637939
7.27336441397667,-5.884083516597748,3.413319446146488,0.11591905836951093,-0.48540769903886055,0.5703124870330364,-0.6524460167360343
7.219470042586327,-5.720004798173905,3.4552375504374506,-0.1372888111221819,-0.2354975680218972,0.7106201767739095,-0.6486228813095074
7.278155037760735,-5.496042990088463,3.413319446146488,-0.370548400232622,0.04879800268850142,0.7469542085582819,-0.5498836680023588
7.341631241440774,-5.316394890546799,3.2971469655632974,-0.5496732665281324,0.32586399151722084,0.6740555852393793,-0.3705685187713
7.3320499938726424,-5.231361172199249,3.222892296910286,-0.649486902112165,0.5600181245555204,0.4973921498749481,-0.13094851429793986
7.288934379816055,-5.316394890546799,3.3055304110050203,-0.6509377256626728,0.7059048301754954,0.25084027248295593,0.12270943624957371
7.310491894483567,-5.450532356500626,3.4552375504374506,-0.5572103875196166,0.7483831667162162,-0.03244408975126853,0.35831076017370517
7.414688107967377,-5.488857346773148,3.4971553623676304,-0.3818689360556773,0.6813128126293418,-0.3109749317702608,0.5415566072289046
7.4889424842596055,-5.424183633327484,3.4863766050338745,-0.15050755166747953,0.514530410921213,-0.5439792772284091,0.6455172182632825
7.4889424842596055,-5.358312994837761,3.511527233719826,0.10295896990163332,0.2723681632137047,-0.6973901995865834,0.6548755177168961
7.435048112869263,-5.334359875917435,3.4875741147994996,0.3413967732144627,-0.00978954306556687,-0.7487122293519405,0.5681394245290213
7.390734989047051,-5.347533652782441,3.408528822362423,0.5333008152003377,-0.29699933427963454,-0.6876594996923742,0.3930725739948577
7.348816884756088,-5.372684866189957,3.3534366488456726,0.6418557242601877,-0.5336809817187753,-0.525781697263005,0.1635831464709857
7.360793736577034,-5.396637985110283,3.3342741537094116,0.6563416722028576,-0.6920532586923326,-0.28672248136399126,-0.08982268724412398
7.36797937989235,-5.484066722989082,3.44206318885088,0.5748182969953047,-0.7487946538659656,-0.005575246021200562,-0.32993849186321017
7.382351251244545,-5.577483594417572,3.5714100310206414,0.40928408824926904,-0.6956419403342726,0.2763788721806692,-0.5217121284444843
7.443431850671769,-5.500833613872528,3.575003145039082,0.1838483089763287,-0.5405538153853916,0.5176867315324475,-0.6371827210103018
7.463791855573654,-5.391847361326218,3.537875664532185,-0.06851971037234868,-0.3063193807506149,0.6831340677923058,-0.6593946706552812
7.442234340906143,-5.334359875917435,3.5199109715223313,-0.3161906589085821,-0.020201373775618047,0.748892245092206,-0.5820444802223366
7.407501879930496,-5.321185514330864,3.499550674259663,-0.5115661095852643,0.26251027351367257,0.7020254232298455,-0.42017707810223365
7.393130008578301,-5.342743028998375,3.518713169395924,-0.6320403244388887,0.5067914149247061,0.5521970414093454,-0.19689062319106085
7.405106860399247,-5.472089871168137,3.6061421996355056,-0.6601141791149936,0.67672337126099,0.32135925183463926,0.05498163857852403
7.4518155884742745,-5.563111723065377,3.703152185082436,-0.5918890366829559,0.7473838492231633,0.043515131826047646,0.2986489301455007
7.499721826314927,-5.577483594417572,3.6815943780541422,-0.43730514424652944,0.7086514102153155,-0.2405688419698692,0.4987023379618777
7.515291207432747,-5.456520490050316,3.584584392607212,-0.21299031186624057,0.561848277796344,-0.49477865850129304,0.6278182212074324
7.46618745982647,-5.399033004641534,3.446853812634945,0.03796256020630794,0.33515054513416176,-0.6700984940775528,0.6612117394253164
7.393130008578301,-5.304418038725853,3.4121219363808635,0.2834494400562413,0.059309288621189615,-0.7475163310549339,0.5977944111659311
7.3356425231695175,-5.2457330435514455,3.476795357465744,0.4874280103551959,-0.22533041277855023,-0.715561271954524,0.44677981811743356
7.299713137149811,-5.243338024020195,3.5510500261187556,0.6199493878184461,-0.4771294198764772,-0.5787985803208866,0.23022266754252613
7.345223770737649,-5.276872390508652,3.6049443975090982,0.6615690386846421,-0.6590543784030343,-0.35716443162809286,-0.020181727910412284
7.360793736577034,-5.305616133213044,3.6396765661239625,0.6061404351449582,-0.744338453310873,-0.08319258695411319,-0.2676434816709354
7.345223770737649,-5.304418038725853,3.669617818593979,0.4572947955287527,-0.7186494526089846,0.20973211691607402,-0.48003840823524246
7.326061275601387,-5.347533652782441,3.7881859034299854,0.2439267853913483,-0.5866862940419574,0.46491651212736834,-0.6165643133552894
7.3092943847179415,-5.354719880819321,3.9331021267175674,-0.005131262315623257,-0.3686284990954059,0.6518467019218347,-0.6627085158614934
7.317678122520447,-5.288848657608033,4.0289146023988724,-0.2534410945680846,-0.09649661153503414,0.7431674576655636,-0.6116846780926352
7.314085008502007,-5.216989300847054,4.12113425642252,-0.46454714936286495,0.18985627267733204,0.7255087371085266,-0.47094332368459946
7.2709693944454195,-5.166688043475151,4.2205395537614825,-0.6074317597538766,0.4485147226371315,0.6014124059826009,-0.2610829729229103
7.236237518191338,-5.058898715972901,4.251678608357906,-0.6610314625999715,0.6414591456512295,0.3891049195943883,-0.012842564416101555
7.254201918840408,-5.0648868495225905,4.237306737005711,-0.6151066300733551,0.7415290328143898,0.11288575604675763,0.24297187741569673
7.27336441397667,-5.0768637013435365,4.203772370517254,-0.4786290893371418,0.7291831479224898,-0.17388184619129318,0.4571337169704878
7.256597523093224,-5.098421216011047,4.210958306193352,-0.27169436290092924,0.6098689453464538,-0.43516495941965067,0.6040475980940212
7.275760018229485,-5.124769939184189,4.165447380244732,-0.02473295670882079,0.4010854072885471,-0.6325802814816646,0.6620883357930405
7.305701270699501,-5.1307580727338795,4.07203021645546,0.22594607844595788,0.13344667543687774,-0.7371229359119043,0.622727975766588
7.3092943847179415,-5.212198677062989,3.995380235910416,0.4433948201714952,-0.15378916617714924,-0.7334028651319857,0.4918029719591158
7.285341265797616,-5.279267410039902,3.955857735872269,0.595642914469526,-0.41849466467018487,-0.621941496588971,0.28854897141648167
7.3021081566810615,-5.257709895372391,3.941485864520073,0.6605597004480209,-0.6256496779433685,-0.41336794849596004,0.03674645274882059
7.360793736577034,-5.22776805818081,3.905556186139584,0.6257966804053035,-0.7350063379449625,-0.14802079014440928,-0.2150210307376065
7.339235637187958,-5.216989300847054,3.885195888876915,0.498923093605268,-0.7363973267670975,0.1391781868014266,-0.43522885487555724
7.314085008502007,-5.231361172199249,3.879207755327225,0.29860473459960163,-0.62951775051202,0.4059650706112381,-0.591383949485104
7.279353132247925,-5.352324276566506,3.8935796266794207,0.05444702217546116,-0.43002287216892543,0.6130645965756054,-0.6605056030143901
7.244620671272278,-5.387056737542153,3.923520879149437,-0.1976678383313723,-0.16720922391809162,0.7300012155553298,-0.6325082816958627
7.238632537722588,-5.342743028998375,3.9354974386096004,-0.42527228480765916,0.12709982659405333,0.738492248479193,-0.5075611458636101
7.269771884679795,-5.346336143016815,3.9642411813139917,-0.5846474821759748,0.39587653055866967,0.6367043912734304,-0.3099622755614856
7.2709693944454195,-5.288848657608033,3.9786130526661876,-0.6581012089806384,0.6063819004584892,0.4412795656403118,-0.06690391978704134
7.291329399347306,-5.2529192715883255,3.97502023100853,-0.6348879774129786,0.7277265604613623,0.18104350112813905,0.18588856886532262
7.305701270699501,-5.334359875917435,3.949869309961796,-0.5184507244231445,0.7421805082530479,-0.10580045473229117,0.41131885842106053
7.338038127422333,-5.4816711187362674,3.911544319689274,-0.3259379291851195,0.6476438689551738,-0.37706512492235233,0.576319162348937
7.3703749841451645,-5.552332965731621,3.8540568342804913,-0.08562210082853826,0.4581288035422539,-0.5928814328511457,0.656717946911018
7.37756062746048,-5.470892361402512,3.8061505964398386,0.1732059417892809,0.19470842168446056,-0.7236571902723171,0.6390685434452318
7.339235637187958,-5.379870509505272,3.8205224677920344,0.4006568163453605,-0.09173189034958296,-0.7439106051089589,0.5269311031010743
7.304503760933876,-5.3834636235237125,3.905556186139584,0.5693234380394888,-0.36476637055104066,-0.6549379431033295,0.3374501570565601
7.279353132247925,-5.377475489974022,3.969031805098057,0.6544300407012321,-0.5842427094980792,-0.4697807197264232,0.09842689469576114
7.266178770661354,-5.3559173905849455,3.9857989883422853,0.6434470881748228,-0.7179410313214881,-0.2156607465284501,-0.1550063310680287
7.2601906371116645,-5.340348009467125,3.9642411813139917,0.5379744107778938,-0.7462672501989729,0.07014284199063751,-0.3856795384073648
7.220667552351952,-5.315197380781174,3.88399837911129,0.35340211090782025,-0.665095990494746,0.34570041587808564,-0.5596833871890678
7.206295680999756,-5.33555738568306,3.8492662104964257,0.1108902300705372,-0.4810564135096049,0.5750868815069522,-0.6523520235385097
7.213481909036637,-5.3391504997015,3.8157318440079693,-0.14283604887472842,-0.22960209794354713,0.7138258202554514,-0.6460134968391994
7.2482137852907185,-5.315197380781174,3.7929765272140505,-0.37559798098351094,0.05553452631906837,0.7477673240094799,-0.5446889958603245
7.326061275601387,-5.325976138114929,3.7869881013035775,-0.5531892155024942,0.332519231698921,0.6718962757709644,-0.36327406597113754
7.3631887561082845,-5.425381727814675,3.8348943391442303,-0.6495055576901034,0.5606747883462706,0.4972572938480689,-0.1285359714532382
