3.580991278588772,-8.769237129092216,1.9545745038986206,-0.5354245368974808,0.3043627477261103,0.6896497689554427,-0.38087672449814375
3.5977584618330005,-8.776422772407532,1.9869112144410612,-0.6406063451851344,0.54609120014785,0.5200854551553531,-0.14463412794176383
3.6169209569692615,-8.776422772407532,1.9964924620091915,-0.6481120541470052,0.7012274216682295,0.27676322864376923,0.10785631015639797
3.6432693877816202,-8.786004019975662,2.004876053631306,-0.5602769932391426,0.7532535303855413,-0.007315686077952467,0.3444492568519098
3.703152185082436,-8.827922124266625,2.039608076065779,-0.38997400892857126,0.6944522454989471,-0.2904054007331144,0.5303970723021459
3.752256225049496,-8.8542702627182,2.1042814971506596,-0.16229616208063669,0.5334225330665453,-0.5307292375707134,0.6383156220698153
3.7690234082937244,-8.892595252990724,2.1485947671532633,0.08930150976931445,0.2938454089423952,-0.6929319951401826,0.6523230534845779
3.77980216562748,-8.940501490831375,2.197698660939932,0.3330252198840935,0.004064175334810278,-0.7532403533045637,0.5671919036389845
3.7678256061673165,-8.983617104887962,2.2491978666186334,0.5216842257591339,-0.27989059492722,-0.6998991321704456,0.3995597930878893
3.7582443585991863,-8.989605823159218,2.2695580177009105,0.633575561354982,-0.5226639531413206,-0.5435366057606954,0.17312526776455583
3.751058422923088,-8.977628971338273,2.2683603617548944,0.6522430714574355,-0.6884809069916461,-0.3071923822306812,-0.0787772603177473
3.7402796655893327,-8.947687718868256,2.2611744260787967,0.5749706639458696,-0.752958597523278,-0.025730928466624933,-0.31906113103552675
3.699559363424778,-8.962059590220452,2.256383802294731,0.41313648167518807,-0.7067014565364087,0.25948965514070627,-0.5124025933905124
3.6780015563964845,-8.953675852417947,2.248000210672617,0.1905902320042036,-0.5565758329799857,0.5064538701153452,-0.6303992251362687
3.6528506353497505,-8.909362728595735,2.2072799085080623,-0.06611508167543478,-0.31842559751905325,0.6819511689657887,-0.6551156676235723
3.651653125584126,-8.878223381638527,2.2108728763461114,-0.3073009267619162,-0.03817306105142208,0.7520055211708145,-0.5818905858920932
3.6971640515327455,-8.841096485853196,2.289918168783188,-0.5033690971460161,0.24763052372358466,0.711491531116403,-0.42317664976747504
3.751058422923088,-8.796782777309419,2.2875228568911554,-0.6255150483242902,0.4970110095245273,0.5664043468065164,-0.202230305963163
3.8133365321159363,-8.802771495580673,2.270755673646927,-0.6557542233437368,0.6733083280675157,0.3380759434599508,0.04844533388721217
3.8205224677920344,-8.827922124266625,2.2575814582407476,-0.5896258968119292,0.7506569050671276,0.06010033953539416,0.29196482985370015
3.764232784509659,-8.84588710963726,2.2456048987805843,-0.43685349366035575,0.7177280708733333,-0.2267547077112642,0.4925522752845266
3.7115359228849414,-8.842293995618821,2.228837715536356,-0.2141276864980845,0.5749298846882395,-0.48564406525907583,0.6226996093189588
3.694768739640713,-8.856665866971017,2.2444072428345683,0.03538405954283262,0.3497393189621777,-0.6665243617663406,0.6574006786383124
3.689978115856648,-8.867444624304772,2.25997677013278,0.2796492256736221,0.07319759520347849,-0.7494952620147328,0.5955629898289838
3.7211171704530717,-8.872235248088836,2.23722130715847,0.4828232528854436,-0.21402186164518258,-0.7224140766387841,0.446311831666137
3.72830310612917,-8.813550252914428,2.2336283393204215,0.6151628004366291,-0.4698140404231319,-0.5892636877651455,0.23155518275710626
3.670815620720387,-8.718935286998748,2.355789245814085,0.6572546402557821,-0.6566458980150158,-0.3695128880398327,-0.017109297319233815
3.5785959666967395,-8.584797821044923,2.481543120145798,0.6029443237184523,-0.7470613832501443,-0.09548044351011983,-0.26313668892647807
3.6097350212931634,-8.397963493466378,2.5150774866342545,0.4557795936412203,-0.7260551037860179,0.19929352900251507,-0.4747536598955743
3.631292828321457,-8.285384126901628,2.4911243677139283,0.24431492539117977,-0.5975546277706817,0.45791510030277255,-0.6111893691611839
3.58817721426487,-8.218315393924714,2.4947174817323687,-0.0030119763763650736,-0.38130390740789905,0.6495907323147787,-0.6577462570661472
3.403738198578358,-9.002779600024224,2.7593992996215824,-0.24941240144172117,-0.10879868967396221,0.7461643187015324,-0.6076142761892456
3.146242316365242,-9.42315698325634,2.9210829985141755,-0.45867124028860323,0.1796794676042155,0.7333819838837655,-0.4684942347225764
3.122289197444916,-9.132126442193986,2.467171248793602,-0.6008039716644239,0.4414030316238343,0.6131471399307711,-0.26124420778317353
3.4169125601649286,-8.934513357281686,1.928226073086262,-0.6555274576128283,0.6419430825397805,0.3976102977123968,-0.00994395535214073
3.694768739640713,-9.156079561114312,1.7952862630784512,-0.6127447439825557,0.7428941670794916,0.12826585673155938,0.2370654028700511
3.9247186812758446,-8.687796524763108,1.8384018771350386,-0.4808438424895378,0.7354270226837815,-0.15939728930939023,0.4500319962038076
4.070832706689835,-7.95243548154831,2.124641648232937,-0.2787181420997667,0.6208324992740396,-0.4236675476521676,0.5978202189421182
3.9582530477643014,-7.788356763124466,2.420462666898966,-0.035688362154832835,0.4156967599259868,-0.6265616265801754,0.6582879861359667
3.7211171704530717,-8.565635325908662,2.6348430812358856,0.212478392157223,0.1496689567484264,-0.7384495487736275,0.6222092896832586
3.626502204537392,-9.677060043811798,2.576158086061478,0.4294221322793883,-0.13837580130123195,-0.7427560551423624,0.4947344868434191
3.6300953185558322,-10.051926208734512,2.0312244844436647,0.586215325774573,-0.4121268451544416,-0.6349883767921025,0.28860494914153667
3.5666194072365762,-9.751315004825592,1.6300097425282003,0.652398962725979,-0.6188635408636943,-0.43528191511167386,0.04373974851814732
3.2791819801926616,-9.472260730862619,1.8012745428085328,0.6226433515815962,-0.7347478270846075,-0.17140172422667924,-0.2075628489344997
3.009709538519383,-9.248299507498741,2.3006970722973348,0.5016573631040743,-0.7423910444625035,0.11761252496533711,-0.42820873545108606
2.9785704839229585,-9.000384580492973,2.685144630968571,0.30757346693619914,-0.6409307706673002,0.3888902657143758,-0.585978387725409
3.20492731153965,-8.863851510286331,2.4120790752768517,0.06882952838624996,-0.4457615575004523,0.602828795413141,-0.6581463160252732
3.4432609909772873,-9.176440150737763,1.9569698157906534,-0.17963087696893415,-0.18551096462821504,0.7284161504498334,-0.6346088100601239
3.5510500261187556,-9.394413240551948,1.586894128471613,-0.4065547566738156,0.10864384422266535,0.7466161216636191,-0.5152417993625826
3.464818798005581,-9.40758760213852,1.8815174911916257,-0.5686634702890017,0.3802444585945539,0.6537952335618762,-0.32340037390017945
2.965396122336388,-9.351297626495361,3.3785875698924066,-0.6482693657654489,0.5964992738726332,0.46547497070473776,-0.08525548267945775
2.6300524574518205,-9.04350019454956,3.9726249191164973,-0.6333381149818079,0.7262022738631834,0.21021855581948104,0.16529140430283734
3.1258820191025736,-8.298557903766632,3.949869309961796,-0.5257987364069149,0.7509630299663731,-0.07503458089704361,0.3923774051678064
3.6780015563964845,-7.421873751282693,3.6205140709877015,-0.3405626121838392,0.6673759825240029,-0.3495748642858735,0.5625156170206788
3.785790591537953,-7.330851899385452,3.218101673126221,-0.09860274157209804,0.4817367177292304,-0.5785592175804435,0.6507506941207507
3.745070289373398,-8.088968551754952,2.831258656382561,0.15269481001762625,0.22895058033354077,-0.717181937730953,0.6402468234603678
3.6983615612983707,-8.922537090182304,2.473159674704075,0.38156377814408954,-0.05724422937947441,-0.7508001238026637,0.5361262495989756
3.575003145039082,-9.23871825993061,2.183326789587736,0.55471449649943,-0.3350347253899233,-0.6744382327886137,0.3538030953924147
3.3450532034039497,-9.30339138865471,2.197698660939932,0.6469029749221861,-0.5638238757162777,-0.49919283120110985,0.12010701680801696
3.1761835688352584,-9.171649526953697,2.5390306055545806,0.6449035372116002,-0.7099831662897612,-0.25084555016842885,-0.1307663612624814
3.160614187717438,-8.954873362183571,3.00372111260891,0.5492236567216546,-0.7521822388162196,0.03404051036308003,-0.36251413511880426
3.2971469655632974,-8.532100959420205,3.3833781936764717,0.36856818770845934,-0.6817260490302547,0.31995764871021104,-0.5450084293978706
3.4696094217896465,-8.275802879333497,3.45164443641901,0.13756099255089768,-0.5122691956096076,0.5522529447428628,-0.6431748825791738
3.6097350212931634,-8.623122811317444,3.1019289001822474,-0.11336499568906216,-0.268167260060422,0.7042405081526523,-0.6475183434166162
3.586979704499245,-9.21835767030716,2.818084587156773,-0.3474230997487976,0.015143699652709326,0.7536446307166847,-0.5577523005005695
3.419307872056961,-9.23752016544342,2.5785533979535105,-0.530839556762853,0.29623052162363245,0.6932991073207808,-0.3870312530308332
3.243252301812172,-9.054278951883317,2.5498096552491187,-0.6370908599696282,0.5340394958434205,0.5321528896324021,-0.16040684236761718
3.1678001233935356,-8.84468901515007,2.536635293662548,-0.6508747871121482,0.6942277482249277,0.2939779729468329,0.08936887891393344
3.255228861272335,-8.596774672865868,2.4120790752768517,-0.5670691071202946,0.7539592899779187,0.006517453048656398,0.3315652871027711
3.384575703442097,-8.584797821044923,2.3354290947318077,-0.40172702057561843,0.701763212392775,-0.27559074748171597,0.5198014376414121
3.395354753136635,-8.504554726481437,2.358184557706118,-0.17751744160802232,0.5477741290083504,-0.5181228451725737,0.6324395455886376
3.3785875698924066,-8.435090973973274,2.4887290558218957,0.07279629889522275,0.31392240024761836,-0.6855625401125373,0.6528073445392425
3.384575703442097,-8.311732265353204,2.3545915898680687,0.31264620988967085,0.034286938574358015,-0.753271221382212,0.5776324266539861
3.3690063223242763,-9.017151471376419,2.1198510244488715,0.5066146300923547,-0.2505247317840066,-0.7111651962542491,0.41811845089351574
3.4300866293907166,-9.526155686974526,2.194105693101883,0.6265733283330541,-0.49887565107122406,-0.5652384795248833,0.19757127892054316
3.5833865904808047,-9.363274478316308,2.2695580177009105,0.6545669933213399,-0.6773886577853507,-0.3306107768931744,-0.05816503898488785
3.833696829378605,-9.062662689685823,2.1102697768807412,0.5850931323811841,-0.7516180767310092,-0.05250742585196493,-0.29996543701225553
4.110355206727982,-8.975233951807022,1.5701269452273847,0.42954226004724644,-0.7162130254352985,0.23295023319556804,-0.49826352253044837
4.2816201531887055,-9.4195638692379,0.9868684995174408,0.2104899995551922,-0.5761842627118487,0.48451080072853414,-0.6236625204931374
4.140296751558781,-9.674665024280548,0.5736771981418133,-0.04013098789103706,-0.3515271853659643,0.6653674862088408,-0.6573463699266167
3.664827194809914,-10.117797431945801,0.568886574357748,-0.2847937918538656,-0.0746158578923075,0.7484180270754797,-0.5943024706502058
3.1174985736608507,-10.067496174573899,1.1461567403376103,-0.4914691291836249,0.2204759184485193,0.7187440006460157,-0.43960837796740343
2.9797679936885837,-9.841138762235643,1.9725393430888654,-0.6203692617414912,0.47592095016136715,0.5819141922921538,-0.22364503368684244
3.35104133695364,-9.465075087547303,2.543821229338646,-0.6585854414626439,0.6606472853731313,0.35943899228339227,0.02477885083829647
3.8073483985662464,-9.32255388379097,2.843235215842724,-0.6006869586674043,0.7478768717144525,0.08442720648479267,0.26968019809893806
4.049274899661541,-9.262671378850937,2.7593992996215824,-0.4550385137470546,0.7252420719824809,-0.2026497107960985,0.47528621140075916
3.9390905526280404,-9.589631305932999,2.358184557706118,-0.24305171848527088,0.5962525504090617,-0.4601022224345439,0.6113220944664437
3.661234373152256,-9.51417883515358,1.8108557903766633,0.004369787023411956,0.3798459840353858,-0.6503661994333948,0.6578158861019711
3.4348772531747818,-9.299798274636268,1.625219118744135,0.25674173180112486,0.10068630405246595,-0.7464947684281835,0.6055505858616325
3.3690063223242763,-8.75127214372158,1.8204370379447938,0.4655659899132787,-0.18740061345416334,-0.7295956775123178,0.46456373778892174
3.45164443641901,-8.401556607484817,2.101886185258627,0.6063007643229781,-0.44791042293980987,-0.6055205395317649,0.25518721051105486
3.4588303720951084,-8.300953508019449,2.2144658441841605,0.6578311192967274,-0.6427225342402825,-0.39255895428022686,0.007964287725748791
3.342657891511917,-8.360836012959481,2.420462666898966,0.612307312961173,-0.7432562147485855,-0.12157415655352978,-0.24056117348851308
3.071987647712231,-8.42311412215233,2.875572072565556,0.4764850765657546,-0.7343795345756822,0.16765314446123605,-0.4533664016651337
3.008511736392975,-8.615937168002128,3.1713929450511933,0.2705206238346204,-0.6172566330276444,0.4322431326972912,-0.5991483249576314
3.122289197444916,-8.577612177729607,3.327088218033314,0.018511083473821206,-0.40345955977746367,0.6369134954667354,-0.6566726145539687
3.2204969850182534,-8.44946284532547,3.161811697483063,-0.2307223796456746,-0.13429894867642728,0.7422075770534918,-0.6147022762927014
3.224089806675911,-8.297360394001007,2.9306642460823062,-0.4458952757858869,0.1547875374405373,0.7383796429803301,-0.4816780295146982
3.160614187717438,-8.426707236170769,2.8216774088144305,-0.5950492504936519,0.42124351041228547,0.6257508275609879,-0.2773196643392185
3.0875570288300516,-8.644680910706521,2.869583646655083,-0.6562476101574493,0.6255595034082739,0.4206927978492137,-0.03212400498117905
3.0923476526141167,-8.881816495656967,3.0360579693317415,-0.6207516956457098,0.7374299963047645,0.15343866165065445,0.21753369857055965
3.134265756905079,-8.999187070727348,3.1582188758254053,-0.4899022256804333,0.7391592227412922,-0.14321187067330218,0.439465371568796
3.071987647712231,-9.213567046523094,3.0923476526141167,-0.2892795432593836,0.630550190330528,-0.4117992419908197,0.5908850883391487
2.946233627200127,-9.378843859434129,2.976175172030926,-0.046330001902212224,0.42922467639073963,-0.6197041366347731,0.6554284790415781
2.9534195628762245,-9.299798274636268,3.0372554790973667,0.20330192001964129,0.16490022719108552,-0.7363614386821694,0.6238974883829727
3.1210913953185084,-9.181230774521827,3.1630094996094704,0.42315285415610826,-0.12344543349274259,-0.7447937554075231,0.5009841802644939
3.3606225845217708,-9.007570223808289,3.01330236017704,0.5811786636198664,-0.39340028062442495,-0.6440099460689015,0.30449756899190583
3.3402625796198846,-9.120150175094604,2.7869455325603485,0.6540833119014402,-0.6055679920517304,-0.44881597184874855,0.06345590207334592
3.137858578562737,-9.133324536681176,2.643226819038391,0.6293795094726355,-0.730729518687459,-0.18111962039515328,-0.19264341847749447
3.070789845585823,-8.965652704238892,2.7222721114754678,0.5120180203715221,-0.7446849279986688,0.10749192440357742,-0.41440003742092096
3.323495396375656,-8.674622163176537,2.937850181758404,0.3196322329200815,-0.6495618238997514,0.3800926515210897,-0.5757032645992366
3.5893750163912777,-8.486590325832367,2.888746141791344,0.08008540397982854,-0.45953357083466473,0.5968608242460675,-0.6528187970835665
3.510329723954201,-8.393172869682312,2.493519679605961,-0.171535817034756,-0.2023298410113911,0.7264991286827637,-0.6339062351276482
3.1869626185297966,-8.630309039354325,2.208477564454079,-0.39786511924484064,0.08482781854118007,0.7498446156828438,-0.5217668448850326
2.9474314293265342,-9.144103294014931,2.3893236123025416,-0.5655730952518673,0.3596902781176431,0.6629934894961989,-0.33345106183745843
3.0743829596042636,-9.41357573568821,2.7162836855649948,-0.6513773387633321,0.5859727429638422,0.4734130636011866,-0.090683947095223
3.2839726039767267,-9.290217027068138,2.771375859081745,-0.6391258809021115,0.7200798362133447,0.2178235938961685,0.1598625027397606
3.2216944947838786,-9.123743289113046,2.543821229338646,-0.5335430007203911,0.7488507173252358,-0.06957984101520961,0.386927790767294
2.946233627200127,-8.80636402487755,2.4120790752768517,-0.3499529562808726,0.6682604366202617,-0.34689520828627435,0.5573370898355836
2.7629924136400223,-8.456648488640786,2.728260245025158,-0.11543855844174528,0.4900568139539285,-0.5735244168865311,0.6462104932273856
3.122289197444916,-8.292569770216943,3.0156976720690727,0.13600085687694607,0.24066253027654516,-0.7163237935653164,0.6406758433262655
3.555840649902821,-8.554856568574905,2.8647930228710177,0.36790446381973907,-0.04362539312846035,-0.7547065807457877,0.5414435405052863
3.337867267727852,-9.03032583296299,2.543821229338646,0.5491620742048818,-0.3281730916141198,-0.6800648972676594,0.3580993908117554
2.9929423552751544,-9.278240759968758,2.434834538251162,0.6449835442737228,-0.5581790331958008,-0.5064292065765329,0.1263402281261639
2.971384548246861,-9.090208922624589,2.5534024769067765,0.6466113926511416,-0.7067745925669698,-0.25890296703747706,-0.12382502111744656
3.2324735444784167,-8.992000842690468,2.543821229338646,0.5536631812601803,-0.7522759262022553,0.026142984018648577,-0.35616647366083776
3.357029762864113,-9.180032680034637,2.382137676626444,0.3794716044097936,-0.6881190617361912,0.30736664290244536,-0.5366742076463539
3.173788256943226,-9.455493839979173,2.208477564454079,0.1496461953194982,-0.5234297006423924,0.5438783856805491,-0.6386107314329551
2.899525191485882,-9.51777194917202,2.3018947282433513,-0.10789425721930827,-0.2756269885173669,0.7034891280891501,-0.6461359292906629
2.8588048893213274,-9.447110102176667,2.562983724474907,-0.34355366244956587,0.007505648772703446,0.7552272680707032,-0.5581633451028944
3.109114835858345,-9.357285760045052,2.57496028393507,-0.5292335206308352,0.2892307072413412,0.6965191434939108,-0.3887397090288998
3.2791819801926616,-9.085418298840523,2.4695665606856347,-0.6378476542452316,0.5285768444879932,0.5360864335922744,-0.16238295835243027
3.1761835688352584,-8.717737777233124,2.4575900012254714,-0.6529867788561793,0.6910379676610803,0.29719296732584405,0.08804052511164857
3.057615776360035,-8.352452859878541,2.5019034174084664,-0.5719303532736113,0.7527120767333453,0.014758706206389008,0.32573360455318406
3.146242316365242,-8.146456037163734,2.3545915898680687,-0.4060163753228355,0.7044772431637474,-0.26987644746066775,0.5157802050681298
3.2731938466429713,-8.649471534490585,2.074340098500252,-0.17374533194541722,0.5482267071830205,-0.5202177100978201,0.6313743511253999
3.1941485542058947,-9.145300803780556,1.9629580955207349,0.07933943882803483,0.3134695356367472,-0.687772765082637,0.6499313250526694
3.0791735833883287,-9.443516988158226,1.9318190409243108,0.32054671670881535,0.0321344994266352,-0.7540434008925874,0.5723947291198084
3.0240814098715783,-9.53094631075859,1.9150518576800823,0.5142558925416252,-0.25412563044557873,-0.7089292561876555,0.410341748617017
3.0564179742336273,-9.52136506319046,1.9845159025490284,0.6320094078996216,-0.5028275417536567,-0.558969456545904,0.18783428395562177
3.1749860590696337,-9.401599468588829,2.047991667687893,0.6565397924359614,-0.6771510784314307,-0.32638334962155907,-0.06241656043956731
3.2588219752907754,-9.213567046523094,1.9425979444384576,0.5841229036588672,-0.7513945198711103,-0.045678407537528394,-0.3035130837602112
3.2911585396528245,-9.255485150814057,1.809658134430647,0.4207052293755642,-0.7124627238167269,0.24840088208227404,-0.5036873821413956
3.3354719558358195,-9.518969458937645,1.8084604784846308,0.19835920790864137,-0.5676561639505239,0.4988127092762221,-0.6241842558342426
3.3354719558358195,-9.824372456073762,1.8551690603792668,-0.052736586884288,-0.3388439058584044,0.6753889798180063,-0.6528808358397493
3.3306813320517543,-9.935753728151322,1.8407971890270711,-0.29567636025942473,-0.06000159131934506,0.7520486362259027,-0.5860018325685041
3.3785875698924066,-9.911801193952561,1.8695409317314626,-0.49506123966475063,0.2275434095593625,0.7176526060179934,-0.4337200742682812
3.409726624488831,-9.516574439406396,1.971341687142849,-0.6220821887022688,0.48140401799461563,0.5775920886849794,-0.21829177961287874
3.422900693714619,-9.042302684783936,2.0264338606595995,-0.6578295377552095,0.6677467971926587,0.34661022601542857,0.035154876151783525
3.427691317498684,-8.72612151503563,2.0695494747161867,-0.5952440106988026,0.7507761972601125,0.0693597593689692,0.27786488287498134
3.426493807733059,-8.499764102697373,2.028829172551632,-0.4449840206309206,0.7238880425631213,-0.21813665420034434,0.47999137837210415
3.39655226290226,-8.548868435025216,1.9809229347109796,-0.22898617088652634,0.5908284706430946,-0.4738651154327646,0.6115054408557302
3.3402625796198846,-8.756062767505647,1.9425979444384576,0.020841384491612804,0.37085336776064365,-0.6601743756740841,0.6528424082551585
3.3163094606995585,-8.989605823159218,1.9437956003844739,0.2676172784822564,0.0960938235652353,-0.7494452406139086,0.5978953091064726
3.3163094606995585,-9.091406432390214,2.055177603363991,0.4749213721530074,-0.1929569677767893,-0.7282729693385871,0.4547920194874239
3.4049360007047653,-9.060267085433006,2.240814274996519,0.6144933535692632,-0.45907436569662136,-0.595449014423394,0.23893328860092763
3.5714100310206414,-8.909362728595735,2.371358773112297,0.6593853815639861,-0.6505583509262162,-0.3767245998977281,-0.007957791890686646
3.669617818593979,-8.877025871872902,2.347405654191971,0.6069291127528563,-0.7460843789804565,-0.1026235726351441,-0.25389673860445044
3.6396765661239625,-8.932118337750435,2.189315069317818,0.46463808170112736,-0.7317037543467663,0.18664999206896082,-0.4624747013281923
3.510329723954201,-9.103382699489593,2.0264338606595995,0.2536156130262057,-0.6093636637626194,0.44851177095075756,-0.602654326653144
3.3929594412446025,-9.265066398382187,1.9497838801145555,0.005205265120150272,-0.3970319532470551,0.6441622220289864,-0.6537534436058717
3.39056412935257,-9.354890740513802,1.901877642273903,-0.2440003659489214,-0.12609833767260284,0.744645135740211,-0.6083310385566738
3.4240984958410263,-9.371657631397248,1.9114588898420335,-0.46165460505068623,0.17016720829637844,0.73355007421001,-0.46885225336197406
3.3977500650286676,-9.353693230748178,1.9677487193048002,-0.6055747396837217,0.43429965686256133,0.612993312741067,-0.2624923641571058
3.3474485152959828,-9.265066398382187,1.9569698157906534,-0.6601965342641817,0.6342170157073291,0.40200858792139094,-0.017274500580387087
3.261217287182808,-9.174044546484948,1.9126565457880498,-0.6174036283782679,0.740469040808753,0.1317939166387678,0.23054006768049765
3.1366610687971117,-9.207578912973405,1.928226073086262,-0.4835734304518121,0.7374328875061237,-0.15789292547521347,0.444318914598879
3.0588132861256603,-9.171649526953697,1.9449932563304901,-0.27846864158025936,0.6255732244324155,-0.424257729928596,0.5925527277175511
3.0013258007168773,-9.100987679958344,1.9964924620091915,-0.026210341908107074,0.4156510580356226,-0.6318894102325217,0.6536535696888098
2.927071132063866,-8.975233951807022,2.116258056610823,0.22425517532379696,0.148223445431085,-0.7405529052775242,0.6158902670525405
2.918687686622143,-8.856665866971017,2.164164294451475,0.44156452030719623,-0.1409767387725478,-0.7400709225937703,0.48727955329783573
2.9486289390921594,-8.803969005346298,1.9857135584950447,0.5936651105105332,-0.4093602809713532,-0.6307066546463861,0.2866967260195614
2.880362696349621,-8.850677733421326,1.7497753371298315,0.6580719361007508,-0.617559970292226,-0.4285477703865879,0.04367858177595276
2.723469621241093,-9.01475645184517,1.6120449033379556,0.6252970216662291,-0.734855725235126,-0.16329960831144127,-0.20572781948445945
2.613285274207592,-9.164463298916818,1.6132425592839719,0.5003477391810786,-0.7439038241963242,0.12601623082251864,-0.42471066599716284
2.639633705019951,-9.178835170269013,1.6611487971246244,0.29631617349938166,-0.639735095845162,0.40254139471805317,-0.5838631329387994
2.779759596884251,-9.181230774521827,1.6719277006387712,0.05289591417943938,-0.4425216566362222,0.612765424641478,-0.652606420467194
2.842037706077099,-9.277043250203134,1.6455792698264122,-0.19822877326771066,-0.1802164734236157,0.7327617289028237,-0.6255298752344914
2.771375859081745,-9.368065102100372,1.5737199130654336,-0.4201521319271088,0.10854833681207439,0.7450090124893597,-0.506607358732645
2.637238393127918,-9.321356374025346,1.5090464919805529,-0.5802904775163925,0.3813180799707663,0.6478065042062777,-0.3133787113051032
2.5102868628501893,-9.266263908147812,1.4264082317054272,-0.6552209801584664,0.5980811667166691,0.45549612872124595,-0.07421362340543998
2.4264509466290476,-9.133324536681176,1.4012574568390848,-0.6340560711706814,0.7269645102402829,0.19642789038020295,0.1758169028947112
2.3989048598706724,-8.962059590220452,1.38329261764884,-0.5160881914693978,0.7483335788149412,-0.09822781455838477,0.40497052965734653
2.4108814193308357,-8.795585267543792,1.3557465308904648,-0.3241500902095897,0.6580584741911794,-0.37166059562990994,0.5689939940089986
2.4504040655493737,-8.709354039430618,1.4072457365691662,-0.08464916003495623,0.47128930426571486,-0.5905112591424176,0.6496286356189599
2.5150774866342545,-8.698575282096863,1.4922793087363244,0.16737274933498725,0.21535684307205769,-0.7227862523909453,0.6349707286771078
2.5737627741694453,-8.812352743148804,1.5952777200937271,0.39483910162144076,-0.07224067184032616,-0.74902420027849,0.5271111045690469
2.6025065168738366,-8.924932109713556,1.6383933341503145,0.5643379767335702,-0.3492518414318908,-0.665338942790326,0.3418623852946461
2.6060993385314943,-8.968047723770143,1.6264167746901512,0.6509803469803577,-0.5750618520687676,-0.4839535904220808,0.10638315871485027
2.5534024769067765,-9.080627675056459,1.6467769257724285,0.6406242498545496,-0.7186045327854713,-0.2248171356626862,-0.1505501626398839
2.4827409222722054,-9.188416417837143,1.67552066847682,0.5354797397053946,-0.7520468449869228,0.062082307324213735,-0.3792529214489456
2.498310303390026,-9.21955576479435,1.6647417649626732,0.35188493137949844,-0.6750355959966561,0.3398385942499784,-0.5522804261094933
2.5078915509581567,-9.346507002711297,1.6575558292865753,0.1168536210816211,-0.4989516883625515,0.5677016207378501,-0.6442882225618364
2.5306471601128577,-9.443516988158226,1.6743230125308037,-0.13525529355374322,-0.24966141857629237,0.7122810561748081,-0.6418963145669743
2.5222634223103526,-9.50459758758545,1.7102526909112932,-0.36744746777189213,0.03621047010985879,0.7523540897732446,-0.5455588729769867
2.493519679605961,-9.484237582683564,1.7126480028033257,-0.5492080876591309,0.3229982455219132,0.6791998534375834,-0.3643215186204782
2.480345610380173,-9.418366359472275,1.6886948838829996,-0.6456015048500503,0.5554175323969796,0.5068985771517365,-0.13328125945888153
2.4300439144670967,-9.296205745339394,1.644381613880396,-0.6475584396044974,0.7064641593060441,0.2604621902187749,0.11720028318835958
2.416869699060917,-9.19081202208996,1.6551605173945427,-0.55479938426159,0.7541443791784525,-0.024081805996266737,0.35054809255858943
2.4408228179812435,-9.187218908071518,1.6312073984742166,-0.38080314614100563,0.6915595082941712,-0.3051352566007449,0.5325663203360063
2.4575900012254714,-9.34171637892723,1.6503698936104776,-0.1510681817654906,0.527843836344966,-0.5416429673498001,0.6365392248802902
2.4635784271359444,-9.534538840055466,1.7425894014537335,0.10080435116701605,0.2868176397725619,-0.6990720622536416,0.6472035043767412
2.4527993774414063,-9.62196816265583,1.7605542406439783,0.3431086910666791,-0.003177785381694398,-0.7542947093912179,0.5597372769246267
2.462380625009537,-9.714187524318696,1.7342058098316193,0.5290129738892562,-0.28633466136290026,-0.6964980904757327,0.3912136821772678
2.4492064096033572,-9.811197509765625,1.6839042600989342,0.6374012945299088,-0.5275687672532127,-0.5366959074665243,0.16537317938289153
2.400102515816689,-9.859103747606278,1.6359980222582817,0.6524783224329055,-0.6914550504616892,-0.29833885348106987,-0.0845924373083377
2.3450103422999384,-9.826767475605012,1.618033183068037,0.5721645789249787,-0.754053630933805,-0.016345005019589645,-0.32212366741681125
2.32824315905571,-9.833953703641892,1.6072542795538902,0.40831200138593166,-0.7062812594616317,0.2679539080625701,-0.5124927269840052
2.3533939339220526,-9.801616262197495,1.6072542795538902,0.18486781804366617,-0.5552595969755488,0.5129812466931208,-0.6279816162591836
2.3354290947318077,-9.717780638337135,1.6324050544202329,-0.0717308813355793,-0.31682857608771636,0.6860193553399789,-0.6510389989362931
2.3102783198654655,-9.639932563304901,1.6659394209086895,-0.31199816043899026,-0.0367319660453837,0.7537588519308647,-0.5771962436546098
2.2959064485132696,-9.542922577857972,1.6276144306361675,-0.5066463274229743,0.24872797349470654,0.7114161144826581,-0.4187254544023166
2.3102783198654655,-9.489028206467628,1.5461738263070584,-0.6271278766377619,0.49788492189145345,0.5651090062383024,-0.19867823727150322
2.32824315905571,-9.516574439406396,1.4551519744098187,-0.6556755392766674,0.6741947622627924,0.3361367032562723,0.0506273291382525
2.3306384709477426,-9.61118882060051,1.398862144947052,-0.5881113995361039,0.7517672763522099,0.05790304382059707,0.2926058465888462
2.3653704933822155,-9.604003177285195,1.3940715211629868,-0.429709141030229,0.7170386986265403,-0.23538443695078481,0.4957819335437531
2.4120790752768517,-9.53932946383953,1.402455112785101,-0.2111071674093152,0.5766081886146643,-0.487233615395699,0.6209349118219777
2.4492064096033572,-9.441121968626977,1.4168269841372967,0.03859112426860214,0.35158354181736234,-0.667670312160021,0.6550695325772559
2.439625162035227,-9.453098235726356,1.5078488360345363,0.28267295184936053,0.07487164707001825,-0.7501620920042256,0.5930826877237572
2.415672043114901,-9.459086953997613,1.5737199130654336,0.48527403626508325,-0.21288479408606142,-0.7225617015563878,0.44395243170622195
2.444415785819292,-9.359681364297867,1.5964753760397434,0.6166474814583405,-0.4694250818565536,-0.5888367886919158,0.22947159392405342
2.5066940411925316,-9.393215730786324,1.606056623607874,0.6574274851619792,-0.6569722248883672,-0.36854436735978546,-0.018752246964025818
2.547414343357086,-9.542922577857972,1.6120449033379556,0.5991432004919099,-0.748753479839113,-0.08712801241536168,-0.26982283295836634
2.5534024769067765,-9.62436318218708,1.609649591445923,0.4532272130758209,-0.726891086148811,0.2010674139161306,-0.4751697983521319
2.5162752887606623,-9.569271301031113,1.6108472473919393,0.2408328659684144,-0.5980777758612718,0.45969250937607886,-0.6107252258698651
2.4887290558218957,-9.453098235726356,1.6647417649626732,-0.006933609134672916,-0.3812435032356224,0.6507425412388529,-0.6566121087270607
2.4959149914979935,-9.390820126533509,1.69827613145113,-0.25371918573653673,-0.10835474194346968,0.7460495378034496,-0.6060494301876804
2.5462165412306788,-9.4195638692379,1.7437870573997498,-0.46328914050607284,0.1803784365949218,0.7315899115539795,-0.46647935990047473
2.582146219611168,-9.38842510700226,1.7964839190244675,-0.6048966747934141,0.4425624385406428,0.6095330221652483,-0.2582789106894506
2.608494650423527,-9.305786992907525,1.8240300057828427,-0.6576601942450195,0.6432956534943483,0.3919431614596879,-0.005859119888479528
2.618075897991657,-9.287822007536889,1.8491807806491853,-0.6114253891410164,0.7436960806183995,0.12072575627301928,0.24186861094175774
2.5869368433952333,-9.298600764870644,1.8970870184898379,-0.47531951961658636,0.7345752349959084,-0.1682361268015278,0.4540563665900784
2.5150774866342545,-9.232729541659356,1.9617604395747186,-0.2693451911176243,0.617327027634892,-0.4324036490700798,0.5994894438137831
2.4504040655493737,-9.144103294014931,2.0084690214693546,-0.023710682442776018,0.40924372327742714,-0.6329320523587785,0.6567757574644721
2.467171248793602,-8.990803332924843,2.0348174522817137,0.22551895279688228,0.14101476718247227,-0.7402784693609055,0.617449451507203
2.5354377838969233,-8.981222085356713,2.1222463363409045,0.44162673078327475,-0.14790435242610486,-0.7386547976648187,0.4873184001018608
2.595320581197739,-9.060267085433006,2.212070532292128,0.5954371084237549,-0.4208441071265605,-0.624511956070861,0.2798744435159322
2.638436195254326,-9.051883932352066,2.279139265269041,0.6571686169625347,-0.6249927188915292,-0.41983848182660516,0.0353434490345071
2.6791564974188806,-9.038709570765496,2.3414173744618894,0.6221346667459624,-0.7371836678295731,-0.1533391578425219,-0.2144663120174683
2.7174814876914026,-9.099790170192719,2.3893236123025416,0.4955048502747575,-0.7408292802358017,0.1357746406302538,-0.43268021431678544
2.742632116377354,-9.171649526953697,2.404893139600754,0.29596746565355564,-0.6353670486923902,0.40491534096850346,-0.5871588706294862
2.6827493190765384,-9.265066398382187,2.404893139600754,0.05288385652121744,-0.43626884057190096,0.6145429075900716,-0.6551410620593349
2.604901828765869,-9.31297263622284,2.3953118920326233,-0.2037655289905,-0.16612087400208397,0.73531014656976,-0.6246618707489384
2.543821229338646,-9.317763260006904,2.404893139600754,-0.4242189465709534,0.12284525307642,0.7437296999111361,-0.5018101858640498
2.566576838493347,-9.356088250279427,2.371358773112297,-0.5822212865698013,0.39371539309269865,0.6426152178108061,-0.3050446599185722
2.595320581197739,-9.342913888692856,2.294708792567253,-0.654528583893036,0.6065218090175488,0.446888225894515,-0.06336041043040927
2.6096924525499343,-9.235125145912171,2.2252447476983073,-0.6305537301573434,0.7299426288019458,0.18534557749904432,0.18770393960679344
2.646819640696049,-9.072243937253953,2.1953033490478995,-0.5139079727935428,0.74573994233645,-0.1034165330418679,0.41118797963566456
2.699516502320767,-8.995593956708909,2.2683603617548944,-0.3218976503630633,0.6516325961277936,-0.3768162366559819,0.5742528938951149
2.822875210940838,-8.918943976163865,2.3498009660840036,-0.07650115523249588,0.4561477114181261,-0.5989374065074204,0.6537207520817009
2.976175172030926,-8.820735896229744,2.40609079554677,0.17485926755369258,0.19705819756828752,-0.7268643258672637,0.6342401399338048
3.110312637984753,-8.771632148623468,2.4755549865961077,0.4005814797496211,-0.09100277737262871,-0.7479023946051457,0.5214355000725982
3.1941485542058947,-8.787201529741287,2.473159674704075,0.5673764297831546,-0.36582070265406236,-0.6589857877601788,0.3316578537684667
3.2588219752907754,-8.859060886502267,2.4468110977113247,0.6504607277673107,-0.5869276593114805,-0.4730721470127126,0.09284130593841225
3.276786668300629,-9.044697704315187,2.455194689333439,0.6375555990893772,-0.7216582296883507,-0.21734240646928432,-0.15967008468401786
3.2707985347509387,-9.1991951751709,2.4504040655493737,0.5306154053799322,-0.7499839294071151,0.07055375938213222,-0.38857890349528995
3.2719960445165635,-9.41118071615696,2.5162752887606623,0.34036413208521094,-0.6643903924396719,0.3542381563901731,-0.5632521571916358
3.2636125990748406,-9.53932946383953,2.6252618336677553,0.10389948622791123,-0.4813731008472848,0.5786519639124704,-0.6501128665104906
3.2923563417792323,-9.545318182110787,2.6731680715084076,-0.1476826544304092,-0.22745629048162955,0.7176604394997791,-0.6414179316777079
3.288763227760792,-9.466272597312928,2.733050868809223,-0.3773987980040515,0.05985537687823232,0.7509718121865537,-0.5385432372847193
3.2719960445165635,-9.443516988158226,2.7246674233675003,-0.5515705274476287,0.33834597023123975,0.6738986880311286,-0.35658451445533784
3.2396594801545144,-9.475853844881058,2.651610264480114,-0.6446163135539577,0.5671050616522211,0.49789414406512994,-0.12232366350869284
3.1821719947457314,-9.533341330289842,2.6168783882260325,-0.6416611118671769,0.7149365592530951,0.24225479527759836,0.13582837673230483
3.1007313904166223,-9.588433796167374,2.6216690120100976,-0.543442475549475,0.7532630990179742,-0.043735443566547676,0.3679024196747463
3.0731851574778557,-9.594421929717065,2.691133056879044,-0.36555871647953625,0.6810909561920021,-0.32322633514465754,0.5458998722002524
3.1007313904166223,-9.448307611942292,2.728260245025158,-0.13403530157271606,0.5091139574821215,-0.5552315603608677,0.6438597911101761
3.1139054596424103,-9.251892036795617,2.704307126104832,0.11724608237209025,0.2626542414428057,-0.7058282401646855,0.6473581705721527
3.083964207172394,-9.106975813508035,2.685144630968571,0.3514063093077756,-0.022185534445856137,-0.7530718516056398,0.5557915024173119
3.0061164245009424,-8.934513357281686,2.694725878536701,0.5340518864103443,-0.3038167307773521,-0.6900977379507823,0.3824252721729151
2.9797679936885837,-8.796782777309419,2.6875399428606035,0.6395356155513777,-0.545808800344833,-0.5211409408953981,0.14662561041685
2.9917445531487465,-8.754865257740022,2.7414346066117288,0.6474613412493004,-0.7014381143409465,-0.2785117568190841,-0.10587532597834817
3.0791735833883287,-8.847084619402885,2.753411166071892,0.5600134857476611,-0.7541648916751761,0.005027863311174152,-0.34292117539727435
3.1330679547786713,-9.017151471376419,2.651610264480114,0.38999911683444394,-0.6961652554539339,0.2878413166478811,-0.5295299825293435
3.0743829596042636,-9.23153203189373,2.5150774866342545,0.16246553826967527,-0.535795138055251,0.5284338454103616,-0.6381897758002062
2.939047691524029,-9.245903903245926,2.4276486025750637,-0.08906470732410386,-0.29654877539490493,0.6912901206073282,-0.6528738552521152
2.850421151518822,-9.10937141776085,2.3893236123025416,-0.32757393010129154,-0.013703108036520563,0.752299915949231,-0.5714476193063662
2.8456305277347567,-8.944094604849816,2.390521268248558,-0.5217710762173786,0.27753093991667127,0.6999857464273003,-0.40093824488385077
2.9103039488196374,-8.711749643683435,2.390521268248558,-0.6340932421447739,0.5207010052306834,0.5444167403536414,-0.17437498742881874
2.976175172030926,-8.512938464283943,2.3749517409503462,-0.6531249207327142,0.6870453872305151,0.3086917661793045,0.07814004924658517
3.0168954741954805,-8.417125988602638,2.3270455031096935,-0.575841600271781,0.7521063614998584,0.0275147107647609,0.3193515509268905
3.0540226623415947,-8.309337245821954,2.2815345771610738,-0.413540178590862,0.7062514919490146,-0.25772133101454736,0.5135884211612629
3.065999221801758,-8.220710413455963,2.2539884904026986,-0.1900768439852404,0.5561113985221788,-0.5050541787264573,0.6320847904872104
3.1941485542058947,-8.211129165887833,2.32824315905571,0.06148349359855911,0.32367720495151825,-0.6778146476964623,0.6572823977392134
3.3785875698924066,-8.406347231268883,2.4024978277087214,0.30937781899682515,0.03627977889204768,-0.7508281461994684,0.5824313158055475
3.4492491245269776,-8.70336590588093,2.455194689333439,0.5054294422913382,-0.25046288748800677,-0.709708028805597,0.42204731334900203
3.318704772591591,-8.881816495656967,2.504298729300499,0.6264779558022453,-0.5004539482000525,-0.5633754721505199,0.1991966214673288
3.1139054596424103,-9.059069575667381,2.5486118531227113,0.6545502480054964,-0.6765241557402152,-0.33328121577769265,-0.05294025638089833
2.9737798601388934,-9.400401374101639,2.5845415315032008,0.5857327779678626,-0.7522865193659262,-0.053571389947555836,-0.29683701213534247
2.9534195628762245,-9.647118791341782,2.5138799768686297,0.4305079964533686,-0.7164645340056877,0.23400702056183278,-0.49657038859510455
3.0240814098715783,-9.669874400496484,2.4755549865961077,0.20619307846191787,-0.569913755644924,0.4921022448107049,-0.6249144790876272
3.2540313515067103,-9.674665024280548,2.5522049671411517,-0.043478037375717475,-0.3411269424259605,0.6705743549194008,-0.657321918044348
3.4217031839489938,-9.883057451248169,2.5833440217375756,-0.28649500477539425,-0.062037789338729,0.7499365928336251,-0.5930152035671631
3.2899610298871997,-10.10102995634079,2.6120877644419673,-0.48719013457910615,0.22626948691319182,0.7187327252842853,-0.44144213852582914
2.8516189536452297,-9.935753728151322,2.580948709845543,-0.6158625372742462,0.48137312261709214,0.5817012086192704,-0.22498212350068522
2.5354377838969233,-9.575259434580804,2.4456134417653086,-0.6536573598600406,0.6657144255119423,0.3591106739147214,0.024410724008534723
2.498310303390026,-9.41716884970665,2.232430683374405,-0.5951475410393571,0.7522292022548697,0.08383469900922047,0.27004143184304674
2.5797509077191356,-9.205183893442154,2.0072713655233385,-0.44446820659548747,0.7264302477348616,-0.21025607292080006,0.4801452824943527
2.6731680715084076,-8.914153352379799,1.882715147137642,-0.2308270399848916,0.5933035778282464,-0.46647004599555614,0.6140972547869914
2.719876799583435,-8.662645311355591,1.882715147137642,0.01695024041923772,0.3732136203264636,-0.6541864299292585,0.6576202535270305
2.777364284992218,-8.532100959420205,1.9605627836287023,0.26234162640359104,0.09841323938991442,-0.7459379658237287,0.604208785529853
2.894734567701817,-8.481799702048303,2.0420033879578114,0.46919187677854507,-0.1909026643397474,-0.7282451356211922,0.4615995861751654
3.076778271496296,-8.572821553945541,2.086316657960415,0.6069028964061811,-0.45220252800597893,-0.6035566320490936,0.250800996625502
3.243252301812172,-8.739295291900635,2.0803283782303335,0.6551169360067987,-0.647061069992506,-0.3900331677679648,0.0028106757379460514
3.3282860201597217,-8.912955842614174,1.9797252787649633,0.6041461320732597,-0.7478064411774047,-0.11216522922946427,-0.25141984604721623
3.3222975942492488,-9.018349565863609,1.8982846744358541,0.46396214652482987,-0.7347009917780989,0.176407534259522,-0.4624218432652439
3.222892296910286,-9.10817332327366,1.9306213849782945,0.25527951031713453,-0.6130858042175212,0.43908676350945786,-0.6051123717046187
3.184567306637764,-9.207578912973405,2.0994908733665945,0.009100607908541605,-0.4008148450071481,0.636802695185882,-0.65859469050516
3.288763227760792,-9.21236953675747,2.275546297430992,-0.2383355485612049,-0.12948866119516467,0.7401967605243421,-0.6152541008584854
3.4732022434473038,-9.21835767030716,2.3498009660840036,-0.4508397187805922,0.16071444417010136,0.7341720905852844,-0.481565942328322
3.5019459861516955,-9.153684541583061,2.3917189241945747,-0.5996644440940024,0.43278479172113277,0.6159177961075022,-0.2715605770033715
3.357029762864113,-9.044697704315187,2.401300171762705,-0.6560479642824518,0.6341861122663829,0.4083340019531383,-0.02593041492603225
3.1390563806891443,-8.957268966436386,2.4719618725776673,-0.6160172444933503,0.7422066597046867,0.14056370166311874,0.22336936797957146
3.0624064001441003,-8.818340876698494,2.601308714747429,-0.4854600669424443,0.741003921695196,-0.14786444427329606,0.4397474474699388
3.0636039099097254,-8.793190248012543,2.713888373672962,-0.2834442025299424,0.6308079507556275,-0.4146240449312522,0.591462268179888
3.0252789196372034,-8.83271274805069,2.7761664828658104,-0.039651817926737734,0.4278695811579475,-0.620402087583018,0.6560919177809318
2.8875486320257187,-9.038709570765496,2.81568927526474,0.20990967409419692,0.16208451722905137,-0.7349852204087761,0.6240699189810036
2.7055049282312393,-9.239915769696236,2.856409577429295,0.4330877977010266,-0.1343401228781833,-0.7404124170285011,0.49616241653067805
2.600111204981804,-9.335728245377542,2.91269926071167,0.5867569067779955,-0.4041013867280882,-0.6355482575188014,0.29748414068244045
2.614483076334,-9.368065102100372,2.9725820580124855,0.6543716996356863,-0.6143482522800264,-0.43739531834893414,0.055310388923011114
2.691133056879044,-9.369262611865997,2.9498267412185672,0.6262076496804793,-0.7342895865120075,-0.17522318660448605,-0.19488359986885676
2.71508617579937,-9.329740111827851,2.831258656382561,0.5063870695291417,-0.7466301537381391,0.11245528932986924,-0.416496527289708
2.6312502595782283,-9.29381014108658,2.71508617579937,0.31241274061180024,-0.6497454084883254,0.38367691858588343,-0.5770798955051237
2.5462165412306788,-9.259078264832498,2.608494650423527,0.07270513594922764,-0.45789394538254263,0.598766038762198,-0.6530898321162559
2.5342399817705155,-9.266263908147812,2.582146219611168,-0.18345190576517395,-0.19248686722318484,0.7280952331172473,-0.6318002340373665
2.589332155287266,-9.30339138865471,2.570169660151005,-0.40668208342911527,0.09547407399789207,0.746746497650113,-0.517555844773575
2.680354007184506,-9.345309492945672,2.518670600652695,-0.5704798041148808,0.3693330844338993,0.6562896300447685,-0.3277648354160195
2.7067024379968645,-9.350100116729736,2.4036954836547375,-0.6509992463096808,0.5892159327215188,0.47000402088099225,-0.09011540538131137
2.6252618336677553,-9.359681364297867,2.2815345771610738,-0.6364606238305394,0.7230949646655715,0.2151009066208577,0.1605713123799563
2.5258565363287926,-9.338123264908791,2.1809314776957036,-0.5290709256188402,0.751494543662479,-0.07119371901161027,0.38764850171726695
2.4408228179812435,-9.290217027068138,2.1030838412046435,-0.3445215831968229,0.670324506457722,-0.3471936594304041,0.5580559986283551
2.3989048598706724,-9.192009531855584,1.9988877739012243,-0.10366013268149986,0.4862105073071707,-0.5771050242756305,0.6479226114532364
2.3941142360866072,-9.132126442193986,1.9198424814641477,0.1470950266499043,0.23438646228209675,-0.7167713146658232,0.640050718229403
2.4072884514927866,-9.188416417837143,1.8503784365952016,0.3764083435673888,-0.051684853378891116,-0.7519899707007159,0.538661785157991
2.4312415704131127,-9.291415121555328,1.7964839190244675,0.5507328049283218,-0.3302505693354124,-0.6775524186337698,0.3585396198929038
2.4599853131175045,-9.356088250279427,1.7833097036182881,0.6446112271788234,-0.5607051146725215,-0.5042002105228688,0.1259693926467083
2.5342399817705155,-9.49142322599888,1.8168440701067448,0.6443373391985686,-0.7092948966043725,-0.2571189634150735,-0.12497992485939248
2.604901828765869,-9.606398196816444,1.8084604784846308,0.546602965941362,-0.7539438626551772,0.03448616723002322,-0.3627734194486697
2.67556338340044,-9.60520068705082,1.7090550349652769,0.370256601360406,-0.6859501574259634,0.3145620512957536,-0.5416946986642431
2.6492149525880815,-9.538131954073906,1.6012659998238088,0.13965795809044368,-0.5176140023575035,0.5487610648568488,-0.641430193398028
2.566576838493347,-9.400401374101639,1.5653363214433194,-0.11152448149706531,-0.2734826119995141,0.7027719988945234,-0.647210219735852
2.5522049671411517,-9.3321351313591,1.6168355271220207,-0.3465298694008608,0.010805277096959302,0.7538936098460218,-0.5580723256292275
2.614483076334,-9.354890740513802,1.6958808195590973,-0.5308290651572003,0.2935256622154609,0.6944758206507906,-0.3869968006802107
2.7031096163392068,-9.435133835077286,1.7485776811838152,-0.6373145475618726,0.5332306535880658,0.5331264050660658,-0.15897004045222782
2.7953289780020714,-9.50459758758545,1.7629495525360108,-0.649322876494273,0.6973227360232307,0.2870528142153829,0.09859759498744249
2.796526780128479,-9.51777194917202,1.7485776811838152,-0.5645454517620049,0.7539998281800839,0.003610976035036817,0.3357970411592578
2.753411166071892,-9.431540721058846,1.7833097036182881,-0.3967703958098138,0.6997099062432539,-0.28050670587788396,0.5237320766112372
2.709097749888897,-9.308182012438774,1.8084604784846308,-0.17061980204777574,0.5424143119208373,-0.523343984486772,0.6346547654230067
2.728260245025158,-9.12853391289711,1.825227661728859,0.08073773405896471,0.3053069179277717,-0.6891020682213512,0.6522326607411845
2.785747730433941,-8.999187070727348,1.8791221792995931,0.32037932224044124,0.023249268926107985,-0.7533902653677129,0.5737766720809796
2.831258656382561,-8.981222085356713,2.01325964525342,0.5129139306831532,-0.2621867895159703,-0.7066843349108799,0.41082190533859464
2.8911414536833764,-8.966850214004516,2.0994908733665945,0.6316511044099777,-0.514097452907129,-0.5512000926359233,0.18138122584823163
2.989349241256714,-8.988407728672028,2.1294322720170022,0.6536333350420358,-0.6836930293177039,-0.3168997960543045,-0.07001302910849667
2.995337667167187,-9.081825184822083,2.1773385098576545,0.5793946487428805,-0.7525176538442961,-0.035849381869615136,-0.31102064799681167
2.9594079887866975,-9.11775457084179,2.2108728763461114,0.4198954799617331,-0.7104029821586189,0.250535166161948,-0.5062089680794404
2.9546173650026324,-9.048290818333626,2.2240470917522908,0.19865716914039638,-0.5635866500158655,0.49995088376519453,-0.6268608544927808
2.9917445531487465,-8.922537090182304,2.2192564679682256,-0.05177201342846464,-0.33381858546620874,0.6756426111863965,-0.6552799955531453
3.0671970239281654,-8.857863376736642,2.2348259952664375,-0.30008650818039256,-0.04803782860289916,0.7523413549214069,-0.5844851925466029
3.1258820191025736,-8.889002723693848,2.2539884904026986,-0.4982024438979401,0.23850429095180156,0.7151753317515165,-0.42829227514141155
3.1139054596424103,-8.886607119441033,2.2611744260787967,-0.6230149371291579,0.4899967691205822,0.5727615450390273,-0.20904489204438487
3.0815688952803613,-8.930920243263245,2.3030923841893673,-0.6561112962201375,0.6694122514392435,0.3460246304648938,0.040892049435163044
3.057615776360035,-9.073441447019578,2.331836126893759,-0.5927120425533716,0.7503244253439539,0.0683717203625949,0.28465944424721723
3.0372554790973667,-9.160870184898377,2.3114759758114816,-0.44216931395845155,0.7208810534989324,-0.21934393311003356,0.48652342544589033
2.980965795814991,-9.251892036795617,2.3258478471636774,-0.2267127532304032,0.5854165082515831,-0.47482801493642984,0.6167878043709554
2.9210829985141755,-9.28422889351845,2.4216603228449824,0.02806472311053011,0.3578260718193859,-0.6638248934771444,0.6561321394681829
2.917489884495735,-9.29381014108658,2.4887290558218957,0.27288350303088665,0.08208247226085588,-0.7497935251190403,0.5971655810666762
2.976175172030926,-9.289019517302513,2.479147808253765,0.47762904407322704,-0.20556219282019686,-0.7256593831266142,0.45059198929957617
2.9785704839229585,-9.353693230748178,2.4132767312228682,0.6122864459868811,-0.4629813115828341,-0.5950906252484521,0.23795117341000696
2.899525191485882,-9.370460121631623,2.3605798695981504,0.6571360744144348,-0.6524946011792943,-0.3772689056803348,-0.009547143123614727
2.800119601786137,-9.351297626495361,2.3030923841893673,0.605627280094037,-0.7463639749548087,-0.10420043452310115,-0.25553607170173376
2.7593992996215824,-9.263868888616562,2.2348259952664375,0.4653271950836156,-0.7308970561129411,0.1841142741222544,-0.4640711464263713
2.7498180520534516,-9.177637660503388,2.213268188238144,0.25112852573341377,-0.6042882232728156,0.45100483512295236,-0.606930676002181
2.7438299185037613,-9.098592075705529,2.270755673646927,0.004484170986859063,-0.39081921642308826,0.6450546892230031,-0.6566160828036567
2.7378414925932884,-9.068650823235512,2.3498009660840036,-0.24285333887706584,-0.12004998098428733,0.7446400977888337,-0.6100175264916325
2.7486205422878265,-9.078232070803642,2.4108814193308357,-0.45454756060321844,0.16830207642542797,0.7351506455103448,-0.47393507427312886
2.758201789855957,-9.150091427564622,2.4228579787909985,-0.5995235908667892,0.43208431257085383,0.6179737314182628,-0.2682966233506342
2.7677830374240875,-9.195602645874024,2.3258478471636774,-0.6564755563835927,0.6326041341184443,0.41025633395265665,-0.02327216833112122
2.758201789855957,-9.249497017264366,2.145001799315214,-0.6170743154372574,0.7404319699862217,0.14244346428145654,0.2251436131305091
2.699516502320767,-9.30339138865471,2.0336197963356972,-0.48299363869169837,0.73839313729992,-0.15309894279450748,0.4450319465914092
2.656400888264179,-9.245903903245926,2.006073709577322,-0.2802483947648867,0.6267306012163579,-0.4193942713409744,0.5939512066635271
2.643226819038391,-9.23752016544342,2.063561194986105,-0.03646924332625802,0.42313548759411734,-0.6241719102638305,0.6557711337557482
2.689935254752636,-9.21955576479435,2.125839304178953,0.21270697728748642,0.15743387806140136,-0.7373952664462929,0.6214648315668144
2.7114930617809296,-9.159672675132752,2.1461994552612307,0.4307022731074233,-0.13136725250618583,-0.7424582908484677,0.495977704397533
2.713888373672962,-9.106975813508035,2.1270369601249697,0.5855236681877942,-0.4009764216652413,-0.6385867630970357,0.29763549730786315
2.66598213583231,-9.12733581840992,2.117455712556839,0.654789984230933,-0.615853071217195,-0.43534633517578225,0.049483731389401375
2.662389314174652,-9.132126442193986,2.0695494747161867,0.6252217375288545,-0.7344229914303302,-0.17188126075580912,-0.20044321086262584
2.7162836855649948,-9.166858903169633,1.9928994941711426,0.503823278106187,-0.7451688614313228,0.11686012842230832,-0.4209859650589359
2.7414346066117288,-9.224346388578416,1.947388568222523,0.3084249471768009,-0.6464334674581307,0.38847636865506413,-0.5797274662335916
2.727062735259533,-9.230334522128105,1.9761323109269142,0.06776241933750721,-0.4526715560355118,0.6030159570923344,-0.6533517217961031
2.6923305666446686,-9.180032680034637,2.030026828497648,-0.18285246013820658,-0.19231089760729947,0.7289417910508516,-0.6310509977350935
2.707900240123272,-9.162068279385567,2.0719447866082192,-0.40658908871160654,0.09629510293042616,0.7477064093841742,-0.516088840664192
2.777364284992218,-9.233927636146547,2.0994908733665945,-0.5736270100779909,0.37678823859731303,0.6531636289588376,-0.3199374163317581
2.822875210940838,-9.358483854532242,2.087514313906431,-0.6516732096382756,0.5949833501671914,0.463489302510066,-0.08058850614266243
2.837247082293034,-9.432738230824471,2.0420033879578114,-0.6339284775815711,0.7257398364838118,0.20571966463363564,0.1706335097059956
2.8013174039125444,-9.449505706429482,1.9869112144410612,-0.5229370000969886,0.7498645190714164,-0.08233965938033486,0.3968126478081135
2.7498180520534516,-9.465075087547303,2.004876053631306,-0.3350467926552769,0.6637285842102849,-0.3583232703367451,0.5646347909656317
2.7031096163392068,-9.50100447356701,2.0911072817444802,-0.09794887718117157,0.47999252976023565,-0.5815794955768756,0.6494447468090446
2.6983189925551416,-9.503400077819824,2.1270369601249697,0.1536002739483259,0.22571620114670396,-0.7193091438288414,0.6387906605352953
2.7306555569171906,-9.487830696702003,2.1114674328267578,0.3875844530395191,-0.06857083084414667,-0.7507138352566706,0.530570514138904
2.754608675837517,-9.445912592411041,2.0958979055285454,0.558760828028611,-0.3461513855776876,-0.6696244552638635,0.3457869925778039
2.7689805471897126,-9.401599468588829,2.1138627447187903,0.6477616995542348,-0.572815832837787,-0.49006297958693656,0.11011393317530598
2.7821549087762834,-9.371657631397248,2.1677572622895243,0.641465968271833,-0.7152376245603532,-0.23844501611773378,-0.14177632471945548
2.8132939633727077,-9.348902606964112,2.221651779860258,0.5407679195136774,-0.7524725953663536,0.04826556993107193,-0.37286121440383374
2.8204798990488054,-9.339321359395981,2.189315069317818,0.36042794587204846,-0.679044604338697,0.3278905153454378,-0.5490700602832588
2.8025149136781695,-9.347704512476922,2.1485947671532633,0.1209801448949625,-0.5005656536559877,0.5639627638708432,-0.645556993524435
2.7438299185037613,-9.348902606964112,2.1773385098576545,-0.1310477098386589,-0.2513770443095975,0.7107894369765506,-0.6437503053380027
2.753411166071892,-9.340518869161606,2.190512725263834,-0.3637126948977356,0.0346920226324544,0.7529753973821341,-0.5473002741394465
2.8144914731383324,-9.321356374025346,2.1677572622895243,-0.5429440252603962,0.31554061824599966,0.6844061158066088,-0.37045130896985823
2.8911414536833764,-9.205183893442154,2.1102697768807412,-0.6424326956963491,0.5499141863937139,0.5152836490356053,-0.13913080226827088
2.9031180131435397,-9.068650823235512,2.0958979055285454,-0.6475165570635281,0.7034689875633905,0.2704936003137499,0.1126361578465753
2.8396423941850664,-9.003977694511414,2.1294322720170022,-0.5574221691564047,0.7537144531434206,-0.014058608764884968,0.3478468110753336
2.798922092020512,-8.983617104887962,2.1222463363409045,-0.3803316645490128,0.6905850158815726,-0.30288588942688655,0.5354440201994128
2.836049280166626,-8.982419595122337,2.0539799474179747,-0.15060694112639958,0.5262012340863687,-0.5402502869025164,0.6391865440012645
2.8600023990869525,-9.066255803704262,2.077933066338301,0.101240516039933,0.28446555230641357,-0.6983001851024851,0.649004282689113
2.8635955131053925,-9.12733581840992,2.1485947671532633,0.33814742974446976,0.000950612122530805,-0.7537323790884226,0.5635094611517253
2.894734567701817,-9.172847036719324,2.155780702829361,0.5253979028417606,-0.2826759549878242,-0.6984235129051742,0.3952922270705528
2.904315815269947,-9.224346388578416,2.112665088772774,0.6355197346892183,-0.5247430733053432,-0.540529959314958,0.16907612759221408
2.8647930228710177,-9.226741408109666,2.08152603417635,0.6523811697224139,-0.689724671080504,-0.30326982775050204,-0.08189077524780379
2.7881430423259737,-9.243508883714677,2.082723690122366,0.5704852963301104,-0.7536513837952561,-0.01453874918394736,-0.32610541723008524
2.7881430423259737,-9.262671378850937,2.0923049376904967,0.4058376288145489,-0.7040846409387586,0.2698982977630384,-0.5164451048242572
2.7749689731001856,-9.250694527029992,2.1078744649887087,0.18174226751488187,-0.5512487939728969,0.5146367001829244,-0.631065434140396
2.7629924136400223,-9.235125145912171,2.1222463363409045,-0.06898200658568993,-0.3176245756910268,0.6838795688090814,-0.6531958718868421
2.734248670935631,-9.21596265077591,2.1138627447187903,-0.3095907288462345,-0.037479981992566046,0.7528783125650711,-0.5795887145480538
2.695923680663109,-9.202788289189339,2.124641648232937,-0.5048226806690993,0.24817178108323543,0.711539341144024,-0.42104227122744775
2.6683774477243425,-9.21835767030716,2.0958979055285454,-0.6260454108503628,0.49741340079658575,0.5659679815541743,-0.20081657331173985
2.6791564974188806,-9.254287641048432,2.0420033879578114,-0.6550250574880242,0.6768544835281097,0.33134856442879496,0.054939157635362085
2.651610264480114,-9.235125145912171,1.9881088703870775,-0.586222472699522,0.7519630230817688,0.0527518654982676,0.29683676508518647
2.6444243288040163,-9.172847036719324,1.9425979444384576,-0.4314323635346117,0.7169660878726725,-0.23357188548062874,0.495247330985759
2.6480174428224563,-9.144103294014931,1.9246331052482128,-0.2133650597878923,0.576968720617345,-0.48564546553005405,0.6210724019798257
2.6743658736348155,-9.171649526953697,1.9054706101119518,0.0360628359337712,0.35242357153039977,-0.6665940152887874,0.655857848070253
2.6552033784985545,-9.21955576479435,1.9162495136260986,0.28017338936956504,0.07620470178642845,-0.7498708916979667,0.5944656096856302
2.6504127547144893,-9.251892036795617,1.9198424814641477,0.4873009305231987,-0.21790406023648518,-0.7212817044979526,0.4413709623437037
2.6552033784985545,-9.31297263622284,1.8875057709217073,0.6174655524808295,-0.4731951629533404,-0.5861926048540063,0.2262760687116082
2.651610264480114,-9.340518869161606,1.8455878128111363,0.6570738083723162,-0.6591219432152909,-0.3651444981848127,-0.02194925439646992
2.613285274207592,-9.396808844804765,1.851576092541218,0.6003525144661823,-0.7484253504759746,-0.09046849438969698,-0.26693033672085376
2.601308714747429,-9.401599468588829,1.8407971890270711,0.45559349680076855,-0.7279648188606614,0.19749873886963382,-0.4727536740406326
2.589332155287266,-9.342913888692856,1.837204221189022,0.24406372970341417,-0.6007451880533959,0.4565069576221891,-0.6092122064736404
2.62047120988369,-9.274647645950317,1.8168440701067448,-0.00327751133211613,-0.38539528802136896,0.648586332047361,-0.6563501350435941
2.637238393127918,-9.203985798954964,1.8048675106465817,-0.2558038208636271,-0.106668582961461,0.7465958519174374,-0.6047981915814887
2.656400888264179,-9.178835170269013,1.7964839190244675,-0.46469828227271637,0.18179714578326348,0.7315558750360344,-0.46457648018179715
2.6731680715084076,-9.220753274559975,1.8192393819987775,-0.6053654629169756,0.44365478131125496,0.6091768223713899,-0.25613803000037805
2.688737744987011,-9.281833873987198,1.828820629566908,-0.6571283458301791,0.6404368992265177,0.39739299533169875,-0.010085756140028504
2.7114930617809296,-9.311775126457215,1.8216346938908101,-0.6123585769274561,0.7432569944294682,0.12719975553735888,0.23749996986587293
2.7306555569171906,-9.377646349668503,1.8312159414589406,-0.4776323687460571,0.7369139120040906,-0.16172988549398054,0.45018735073185034
2.746225230395794,-9.43633134484291,1.832413597404957,-0.27278658166756997,0.6222989426651143,-0.42688043996594016,0.5967450014826168
2.777364284992218,-9.471063221096992,1.8300182855129243,-0.021739762408261337,0.41044786821390394,-0.633114401365586,0.6559162179673481
2.8097008493542672,-9.449505706429482,1.8216346938908101,0.22690966802659496,0.14222973633587674,-0.74054432167593,0.6163414737719863
2.827665834724903,-9.34171637892723,1.8276229736208918,0.4423242489480922,-0.14689694278961635,-0.7391568985136034,0.48622795720867507
2.816886785030365,-9.334530735611915,1.8156464141607285,0.5927806434469866,-0.4144360379636369,-0.6291471653778646,0.28465369045311384
2.8204798990488054,-9.265066398382187,1.84439015686512,0.6561821189268423,-0.6210142455592728,-0.42669416034289526,0.04121197814226322
2.824072720706463,-9.245903903245926,1.8264253176748753,0.623151475943597,-0.7363256154510837,-0.16152912243313314,-0.20836306934262974
2.8408399039506915,-9.20039326965809,1.8300182855129243,0.49446782556363456,-0.7422178400643048,0.13417807244916108,-0.43198436574310983
2.8600023990869525,-9.197997665405273,1.8527737484872342,0.2951321598932732,-0.6374736421921442,0.4033443923753831,-0.5863767260442271
2.8767695823311805,-9.21835767030716,1.856366716325283,0.05234938162596267,-0.43900552792145126,0.6132305320366922,-0.6545853674470448
2.885153320133686,-9.21835767030716,1.8970870184898379,-0.19814911546409955,-0.1759956633563622,0.7329208873679313,-0.6265695710616285
2.874374270439148,-9.196800155639648,1.9354120087623596,-0.41953211491091313,0.11294390118034864,0.7448487783448059,-0.5063958699898631
2.918687686622143,-9.135719556212425,1.9449932563304901,-0.579243729137048,0.3852330211795064,0.6472333776475394,-0.3117068759383946
2.9438383153080943,-9.169253922700882,1.909063577950001,-0.653754847261834,0.6008282459141302,0.4544700203610211,-0.07118299787490505
2.9246758201718333,-9.235125145912171,1.8863081149756908,-0.6303828191862321,0.7298753664500794,0.18816950419381498,0.18571938082934242
2.8767695823311805,-9.277043250203134,1.9246331052482128,-0.513794203918086,0.7473393972295285,-0.10027982688559554,0.4091983598312442
2.8719789585471154,-9.255485150814057,1.9641557514667511,-0.3217587114486783,0.6549104929111688,-0.3739274672236127,0.5724874034749327
2.919885196387768,-9.232729541659356,1.971341687142849,-0.08245986674749708,0.466226695537153,-0.5925599318437517,0.6516945342089498
2.9594079887866975,-9.211172026991845,1.9797252787649633,0.16892478435253733,0.20908584400312483,-0.7240497116141448,0.6352161381611958
2.946233627200127,-9.153684541583061,1.9545745038986206,0.39552751410970083,-0.07876199529165967,-0.7492121501139336,0.525390985649291
2.9294664439558984,-9.1345220464468,1.933016696870327,0.5639975002386616,-0.35502433345242457,-0.6643631377513987,0.3383580405108153
2.9150945726037025,-9.211172026991845,1.8934940506517888,0.6504530269318345,-0.5835894905217904,-0.4766574471717159,0.09556068419321005
2.894734567701817,-9.279438269734383,1.921040137410164,0.6383155030059015,-0.7203223752428255,-0.2221885189052451,-0.15595273775586857
2.8791648942232135,-9.2219507843256,1.8970870184898379,0.5324089037073032,-0.7513069063979946,0.06488695124815468,-0.3845365720052936
2.894734567701817,-9.1991951751709,1.851576092541218,0.34838083096803024,-0.6720052901669217,0.3423655898719489,-0.5566196991423574
2.899525191485882,-9.279438269734383,1.8407971890270711,0.11326103652393293,-0.4940689501925876,0.5695835945430301,-0.6470257636976752
2.936652379631996,-9.263868888616562,1.828820629566908,-0.13846969544085624,-0.24369197977568416,0.7131593792321778,-0.6425294252022229
2.9665939244627952,-9.142905784249306,1.7773214238882065,-0.3749830798622721,0.04932471464461007,0.7517243179670303,-0.5402456035168042
2.976175172030926,-9.065057709217072,1.7246245622634888,-0.5505402027761191,0.32852771517788926,0.6777705475830255,-0.3600029309828337
2.965396122336388,-9.103382699489593,1.6839042600989342,-0.6452753414856354,0.5595258958541244,0.5044193763029914,-0.12693147107529018
2.9474314293265342,-9.145300803780556,1.7198339384794237,-0.645323578063309,0.7084615865254095,0.25703665754344385,0.12478708543900872
2.923478310406208,-9.220753274559975,1.7162409706413746,-0.5506244809869608,0.7534891842620749,-0.028078685997340716,0.3581596257684219
2.927071132063866,-9.253090131282807,1.6970784755051136,-0.3751297625574853,0.6879811346453819,-0.30906462936790646,0.5389236258407086
2.9210829985141755,-9.286624497771264,1.706659723073244,-0.14462129601265222,0.5214830575518478,-0.5447474653892361,0.6406171246368615
2.8983273893594745,-9.314170145988465,1.7234269063174725,0.11310515043102806,0.27200040787318996,-0.7030310777117679,0.6472791568050241
2.904315815269947,-9.296205745339394,1.744984713345766,0.3482559033401347,-0.01237635783009319,-0.7532935756113885,0.5577754391313923
2.8983273893594745,-9.271054531931878,1.7569612728059292,0.5323046936764679,-0.2949491681021636,-0.6930278402787003,0.3864830059970083
2.8791648942232135,-9.273450136184692,1.778519079834223,0.6382290240910127,-0.5342729784810597,-0.5311150647388104,0.1585335462301269
2.846828329861164,-9.278240759968758,1.7881003274023535,0.6505087568088065,-0.6952758382299563,-0.29127189311179646,-0.09268522197072696
2.818084587156773,-9.292612631320955,1.790495639294386,0.5673387716675369,-0.7542882058703946,-0.008704030993685863,-0.33030328562103745
2.796526780128479,-9.30698450267315,1.7665425203740597,0.4009366648904992,-0.702674749562356,0.2751238656061029,-0.5194274209626586
2.796526780128479,-9.287822007536889,1.7377987776696684,0.1697498826475959,-0.5432277221013326,0.523648788748822,-0.6339405061388776
2.797724289894104,-9.267462002635003,1.7617518965899945,-0.08140410367023254,-0.306601609396219,0.688848843307073,-0.6518098619197182
2.800119601786137,-9.274647645950317,1.7701354882121088,-0.32063918489494186,-0.02500299486938406,0.753003935716853,-0.5740648361922182
2.81568927526474,-9.260275774598123,1.7833097036182881,-0.5128589839343731,0.2602483317338793,0.7067025859647977,-0.41208970312081666
2.808503339588642,-9.243508883714677,1.7533683049678803,-0.6298133042121389,0.5073280259784295,0.5567685879756372,-0.1896370621419576
2.792933666110039,-9.248299507498741,1.7701354882121088,-0.6543663754153849,0.6800175919772065,0.3251184828082569,0.06065223378994577
2.7941314682364466,-9.277043250203134,1.7833097036182881,-0.5829160409369673,0.752917195827707,0.045772229928234896,0.3020421964108839
2.810898651480675,-9.256682660579681,1.7354034657776356,-0.4211994081686256,0.713152820778037,-0.24681190971450676,0.5030785167325345
2.8264680325984957,-9.235125145912171,1.6839042600989342,-0.2005402299866127,0.5682767638364299,-0.4962768264297703,0.6249435553626477
2.779759596884251,-9.205183893442154,1.6815089482069017,0.049532676952940974,0.3399956752015546,-0.6729327300963431,0.6550656421483243
2.772573661208153,-9.224346388578416,1.6839042600989342,0.29236499249280223,0.06178929820366917,-0.7508290012820776,0.5890336192662856
2.7701783493161205,-9.263868888616562,1.7342058098316193,0.49228175384443046,-0.22549092270286786,-0.7184734185380827,0.4365872942089151
2.777364284992218,-9.281833873987198,1.7773214238882065,0.6199511237827443,-0.47964804964077923,-0.5806468080671019,0.22010823900480198
2.796526780128479,-9.272252626419068,1.8012745428085328,0.6563320084430158,-0.6666957063295036,-0.35147386385106766,-0.034803058551837955
2.8264680325984957,-9.308182012438774,1.7366011217236519,0.5944383255210081,-0.7504952093815741,-0.07513758680245501,-0.2788446895613953
2.8324564585089687,-9.352495136260988,1.6611487971246244,0.445302691501639,-0.7241475524648382,0.21221084724321468,-0.4819568357362489
2.800119601786137,-9.370460121631623,1.663544109016657,0.23079739165761834,-0.5914254696112355,0.4684938718331723,-0.6143793371801598
2.7593992996215824,-9.344111983180047,1.6851019160449505,-0.017524223798253465,-0.3718961780307401,0.655961156774129,-0.6565828928246178
2.779759596884251,-9.323751393556595,1.701869099289179,-0.2633198180455042,-0.09778390001005614,0.7471268712923702,-0.6024138282909681
2.800119601786137,-9.31656575024128,1.6934855076670647,-0.47050846198396895,0.19063829118685108,0.7286123722486052,-0.4597856458623926
