2.409683763384819,-9.31057761669159,0.12575387433171273,-0.05178726543806603,-0.3456499331471283,0.6699715359276992,-0.6549674372825818
2.2923134806752206,-9.376448255181312,0.10778903514146805,-0.2938430396253351,-0.06666127044539495,0.7484383804556066,-0.5908066805202344
2.5258565363287926,-9.534538840055466,0.4694811308383942,-0.49298756589919424,0.22199234040056282,0.7169132127269469,-0.4401341910029207
2.5965180909633636,-9.390820126533509,1.6300097425282003,-0.6202000342372184,0.47808721374883467,0.579719897608619,-0.22518741949469903
2.7306555569171906,-8.820735896229744,2.2491978666186334,-0.6561766668991748,0.6671104234044282,0.3515064612481107,0.028966748231108806
3.2025319996476176,-8.940501490831375,1.7150433146953583,-0.5942038306085099,0.7526716600608272,0.07677531998323274,0.2729701999723124
3.664827194809914,-9.615979444384575,0.6910474808514119,-0.4453921593547758,0.7281904183746355,-0.2089091230792276,0.47720175740134424
3.54625940233469,-9.733350019454956,-0.013174215406179428,-0.23109943821129456,0.5972114116560595,-0.4644106557457048,0.6117632894151505
2.917489884495735,-9.473458825349809,-0.0718593567609787,0.017097123267047695,0.3783713049480243,-0.6524376983609069,0.6564052816099538
2.3749517409503462,-9.412378225922586,0.37606396704912187,0.2623950026333004,0.10366636091040737,-0.7448493473216943,0.6046499797429166
2.2959064485132696,-9.59561943948269,1.125796589255333,0.47324309136956316,-0.1928494737296979,-0.7260010301362712,0.46018752829062076
2.6025065168738366,-9.453098235726356,1.5377902346849441,0.609411299892194,-0.4537662868671982,-0.5999025709008229,0.2506609859811559
3.0312673455476764,-9.350100116729736,1.4072457365691662,0.6564631652011045,-0.6480254718379541,-0.38613779469828674,0.004087063602132051
3.2288804304599763,-9.569271301031113,1.0611231681704523,0.6075180123309083,-0.7472570477498298,-0.11581401432351893,-0.2431375811510481
3.099533588290215,-9.590828815698623,0.7641044935584068,0.46962091724772215,-0.7370255055910252,0.17159864451899812,-0.45475653199370786
2.803712715804577,-9.359681364297867,0.6000256289541722,0.2627992291034761,-0.6188878916632248,0.43412103572594085,-0.5995442177817278
2.608494650423527,-9.214765141010284,0.6143975003063679,0.01746494645586374,-0.4100991966242058,0.6332237539358061,-0.6561564615432212
2.6408315071463586,-9.278240759968758,0.6587107703089714,-0.2362488727251995,-0.13444083479525354,0.7408864250404532,-0.6141656431830138
2.76658523529768,-9.460284463763237,0.976089596003294,-0.44932574487371746,0.15509113825973836,0.7360640242502255,-0.48193657884782
2.7833524185419085,-9.269857022166253,1.513837115764618,-0.5966296237236298,0.4218750625215907,0.6231368227174844,-0.27884587838331465
2.8707814487814907,-9.03032583296299,1.4467683827877045,-0.6562115542949096,0.6266517632387526,0.4189274008514831,-0.03455135967573566
3.0025236028432847,-9.623165672421456,1.0323794254660608,-0.6195329540336482,0.7393542066504233,0.1533520994644279,0.21451668831239437
2.974977369904518,-10.078274931907654,0.7078146640956402,-0.4922400208931889,0.7435474534738733,-0.13472993923736512,0.43207035276293515
2.797724289894104,-9.82197626709938,0.60721156463027,-0.2928491511418468,0.6386845661256038,-0.4031530589228996,0.5863352375131125
2.662389314174652,-9.444715082645416,0.7042216962575912,-0.04455451580933906,0.43443953148717007,-0.6165082931209447,0.6551295391869478
2.652808066606522,-9.51417883515358,0.9162067987024785,0.20458744592107614,0.1701879809831024,-0.7334983393949971,0.6254280247999506
2.747422740161419,-9.692629424929619,1.1245989333093167,0.4238728905999872,-0.11872415314932169,-0.7428839846763383,0.5043408900582955
2.8132939633727077,-9.70580378651619,1.0479489527642727,0.581288212683093,-0.3899985214795902,-0.6437200243449097,0.30924051690685306
2.819282096922398,-9.662688172459603,0.6491295227408409,0.6535440072612362,-0.6042414890044094,-0.4506441940657631,0.06850010141217565
2.7761664828658104,-9.766884385943413,0.16168355271220208,0.629919056487965,-0.7301746657411686,-0.19173756374629994,-0.18243806190517975
2.694725878536701,-9.918986252546311,-0.1233585624396801,0.5100567819568634,-0.748303992224283,0.10220086339461233,-0.4116287136758132
2.5845415315032008,-9.896231228113175,0.03712733432650566,0.31728923094145195,-0.6546891880957686,0.3745944473213928,-0.5747944075537492
2.51986811041832,-9.693827519416809,0.4934342497587204,0.07826765500507313,-0.4646720513305579,0.5918415093388935,-0.6539707078422694
2.589332155287266,-9.692629424929619,1.0084263065457344,-0.17172605152616177,-0.20623214967211453,0.7217871695261079,-0.6379668843884785
2.8348517704010012,-9.778860653042793,1.4922793087363244,-0.3964139893969836,0.08230596191074521,0.7454684517426592,-0.5294888715551234
3.122289197444916,-9.460284463763237,1.6719277006387712,-0.5635421225487949,0.35832461392978615,0.6600141466001044,-0.34410038281438243
3.346250713169575,-9.104580793976783,1.6862995719909668,-0.6487161612240634,0.5818652595940501,0.47841388688459113,-0.10826040218030478
3.3642156985402107,-8.892595252990724,1.5473714822530746,-0.6373240902654764,0.7230191179645344,0.22051051103105956,0.14978809548789435
3.1821719947457314,-8.607553430199623,1.628812086582184,-0.5310201116292828,0.7545867658129738,-0.06486529939301934,0.38001177197528285
2.754608675837517,-7.892552976608277,1.8719362436234952,-0.3456553244716081,0.6760112690115408,-0.3414734327628478,0.5540099778442535
2.4635784271359444,-7.784763649106026,1.7246245622634888,-0.10859013094092726,0.4984727086916834,-0.5684542522599773,0.6454400864831362
2.5486118531227113,-8.746481519937516,1.2228067208826543,0.14472379907973593,0.2478078688970024,-0.7120250876255905,0.6408327056919181
2.804910225570202,-9.879463752508164,0.9365669497847557,0.3768340931085429,-0.03917169556205266,-0.7506559462953895,0.541273770682849
2.917489884495735,-10.09144870877266,1.3473629392683506,0.5535476896550019,-0.3202841037544845,-0.6781730765512161,0.36205569516423114
2.71508617579937,-9.329740111827851,2.4683690509200096,0.6501122645019879,-0.5587283910424589,-0.4997346348890572,0.12426553536481126
2.585739333629608,-7.904529243707657,3.019290786087513,0.6482991998462807,-0.7078981209782071,-0.2506816021957389,-0.12548757753169446
2.9989304888248447,-7.587150564193726,2.162966638505459,0.5528765771449934,-0.7526528041346239,0.03442536576470622,-0.35588782089963444
3.707942808866501,-8.80636402487755,0.8012318278849125,0.37822842906914095,-0.687315410029408,0.31362328189491967,-0.5349590822048507
3.8684287056326867,-10.501047334671021,0.13892808973789217,0.14835651579975903,-0.5220592745052535,0.5470844640372233,-0.6372935331006493
3.4600281742215158,-10.689079756736756,0.14012574568390848,-0.10445677030229421,-0.2807384210270299,0.7016694738025888,-0.6464786706696997
3.147439826130867,-9.757303138375283,0.19162495136260987,-0.3424992536704882,0.0019669234611177223,0.7544590180489382,-0.5598946173449862
2.869583646655083,-9.102185189723969,0.937764605730772,-0.5336424197205395,0.29138273464213943,0.6940496674312552,-0.3855086626339804
2.6348430812358856,-8.293767279982568,1.8419948449730874,-0.6406232741327796,0.531305792159803,0.5316167495928911,-0.15716108745211405
2.480345610380173,-8.26023291349411,1.9198424814641477,-0.6528964555588053,0.6928899796010288,0.29112997280454916,0.0941967803168311
2.6216690120100976,-9.171649526953697,1.38329261764884,-0.5693613866857712,0.7522916767429836,0.008194932685353545,0.3313875186737856
2.856409577429295,-10.429188562631607,0.7820693327486515,-0.40288753106928626,0.7009391325977837,-0.2755594307538777,0.5200317007880965
2.933059557974339,-10.772915965318681,0.8060224516689778,-0.17765255185526577,0.546534237573581,-0.5188348863982849,0.6328904001762514
2.804910225570202,-10.102228635549546,1.1473543962836266,0.0797670398201012,0.3053471404379788,-0.6890920902655391,0.6523438007049333
2.772573661208153,-9.356088250279427,1.2778988943994045,0.3195966740408228,0.024029170795227775,-0.7532308007905841,0.5743900466001416
2.850421151518822,-9.230334522128105,1.437187135219574,0.512521557422435,-0.2607556841169093,-0.7067621842385944,0.41208657016250255
2.734248670935631,-9.251892036795617,2.098293217420578,0.6302355060991183,-0.5073766216308824,-0.5563868398250816,0.18922435135013546
2.382137676626444,-8.905769614577293,3.600153773725033,0.6553200046590192,-0.6795233653281447,-0.3241136450884481,-0.06127016022743346
1.9617604395747186,-8.842293995618821,4.742717546224594,0.583995277163473,-0.7521181035907364,-0.044704526242836294,-0.30210822536838705
2.155780702829361,-9.226741408109666,4.234911425113678,0.4276344528364548,-0.7150564277723245,0.24038708492374097,-0.49803326118906416
3.1019289001822474,-9.659095058441162,2.719876799583435,0.20362724348013536,-0.5699051614156705,0.494942903134872,-0.6235187048845328
3.733093729913235,-9.4195638692379,1.359339498728514,-0.04622414678391374,-0.34467580692691785,0.671346421689887,-0.6544890361629916
3.82890620559454,-8.445869731307031,0.576072510033846,-0.2906323361911093,-0.06924611302854901,0.751099285515707,-0.5887169814845923
3.586979704499245,-7.75721741616726,0.34252960056066517,-0.49283964536189134,0.21680215482511025,0.7217651169826104,-0.4349264599099863
3.20492731153965,-8.063817338347436,0.7904529243707658,-0.62210106609381,0.47150721963912395,0.5864652968642368,-0.2161704442496035
2.818084587156773,-9.275845155715944,0.9665083484351635,-0.6590319814188347,0.6568275632557666,0.3647817341330332,0.0344773267170442
2.843235215842724,-10.6830910384655,0.6311646835505963,-0.5987153687413518,0.7451280998896409,0.08938463089101846,0.27988285004307933
3.008511736392975,-11.213653353452683,0.22635697379708292,-0.4461418139752513,0.7212159710425907,-0.20585113982983388,0.48829326553488683
2.8120961612463,-10.848367266654968,0.17845073595643043,-0.23105200256580957,0.5895722070984629,-0.4641018932735905,0.619377927752713
2.5150774866342545,-10.011206198930742,0.4311561405658722,0.017523288732216924,0.3704301418017628,-0.6538819076649586,0.6594792606482541
2.4647759369015696,-9.344111983180047,0.588049069494009,0.2633097158097628,0.0967926452493393,-0.7468030413912343,0.6029795972954806
2.5845415315032008,-9.05308144211769,0.8730911846458912,0.47057789951834006,-0.19060401775516167,-0.7295519769693674,0.45823625107643406
2.818084587156773,-8.865049604773521,1.3006543573737146,0.608982862215902,-0.4498640903561441,-0.6051520120841586,0.24607563066232527
3.057615776360035,-8.974035857319832,1.4479660387337208,0.6580598948797322,-0.6465442775119068,-0.38583806147796995,-0.008164697324748593
3.2456476137042047,-9.554899429678917,1.3246074762940407,0.6087673172473257,-0.742522282946519,-0.11390372860064947,-0.2551253679865117
3.25043823748827,-9.952521203756334,1.2611317111551763,0.4707519795021042,-0.7293976676969031,0.17475173192688004,-0.4645787859359535
3.212113247215748,-9.468668201565743,0.8766841524839402,0.26353228198103534,-0.6095780754745587,0.43781310495851467,-0.6060404205836323
3.2169038709998135,-8.612344053983689,0.5964326611161233,0.016949437299905973,-0.40048208221376913,0.6369929812464687,-0.6584578651999508
3.135463266670704,-8.209931656122208,0.5221779924631119,-0.23257828920060683,-0.13246320000754613,0.7430609359583343,-0.6133688005506994
3.0695923358201984,-8.477009078264237,0.47427175462245946,-0.4479316813071722,0.15527266409695267,0.7399432132551196,-0.477212373920934
3.076778271496296,-9.102185189723969,0.29222805082798003,-0.5996669502042158,0.4258728900941441,0.623756346088325,-0.2644992458026625
3.0779757812619213,-9.552503825426102,0.0023953118920326233,-0.6581826195792162,0.6267733560362827,0.4167410722305732,-0.016663677954409928
2.989349241256714,-9.772872519493104,0.04790623784065247,-0.6192988176924012,0.7349050068333532,0.14761208044639385,0.23365418687100462
2.7905383542180062,-9.545318182110787,0.2335429094731808,-0.48860498420034404,0.7339918486830497,-0.14367821564804847,0.4493080300079376
2.7258649331331255,-8.989605823159218,0.3365413208305836,-0.2850118852684659,0.6242440292924343,-0.41368797090244747,0.5982891273281481
2.7629924136400223,-8.565635325908662,0.5473287673294545,-0.03843321714862624,0.42179746134177243,-0.6225324972242237,0.6580752839341518
2.8013174039125444,-8.1512466609478,0.6826638892292977,0.2144144356016684,0.15647664881960738,-0.7389969927654013,0.6192131723917836
2.8863508298993112,-8.187176046967506,0.4503186357021332,0.4398935732043759,-0.13911642124126783,-0.7442156071048078,0.4829941984497651
2.9354548698663714,-9.031523342728615,0.14970699325203896,0.5934316483491406,-0.40736675039824555,-0.6367117727769207,0.27656704036248836
2.976175172030926,-9.735745038986206,-0.057487485408782964,0.6579199970721392,-0.614812785866615,-0.43396722883546285,0.028617478651991272
3.0755804693698883,-9.40399448812008,-0.257496028393507,0.6235405137273069,-0.7303213395841542,-0.16619488411922184,-0.22406969715088906
3.1390563806891443,-8.91654837191105,-0.257496028393507,0.49550515378733145,-0.7361785168282827,0.1266114114832176,-0.4432667192706105
3.135463266670704,-8.696179677844048,-0.1856366716325283,0.29297295226643955,-0.6313838365688996,0.4003740550986851,-0.5960049632038802
3.203729801774025,-8.407544741034508,-0.18803198352456094,0.03996757762632461,-0.4260794192703613,0.6178134040753636,-0.6596707655775923
3.313914148807526,-8.057829204797745,-0.3173788256943226,-0.21371425690307636,-0.16054670514209393,0.736396253179301,-0.6215074658987374
3.2875657179951667,-8.491380949616433,-0.3820522467792034,-0.4349156861866813,0.1293890311068271,0.7443143632509529,-0.49000301345638
3.1594163855910304,-9.461481973528862,-0.2694725878536701,-0.5904346095262741,0.4001547089231493,0.6402226076146494,-0.2852686339212294
3.0252789196372034,-10.127378679513932,-0.3281577292084694,-0.6573014651244679,0.610660235989828,0.43998335425522284,-0.03825582445064809
2.965396122336388,-10.625603553056717,-0.41319130137562754,-0.6260484527006404,0.7294190607555555,0.17385773555097156,0.2139734947761189
2.9210829985141755,-10.868728440999986,-0.5113990889489651,-0.5016923456895427,0.7388871775790505,-0.11811603394101228,0.4340496879526981
2.927071132063866,-10.608836077451706,-0.45870222732424737,-0.2975781261698295,0.6341890692236406,-0.3980333804786439,0.5923013686690657
2.942640805542469,-10.47469861149788,-0.17964839190244675,-0.053792359457420925,0.43610091609099827,-0.6112638517316112,0.6582392244578186
3.0875570288300516,-10.308224873542786,0.09341716378927231,0.19768178057405708,0.17349753917932903,-0.733162149646091,0.6271313896258982
3.268403222858906,-10.18606367468834,0.03353436648845673,0.4198405098494278,-0.11425632107475311,-0.7461971555088982,0.5038543881859763
3.39655226290226,-10.38008481502533,-0.24791478082537652,0.5801156663959279,-0.3846712645278479,-0.6490294230648519,0.3070091852773474
3.361820386648178,-10.283073660135269,-0.5113990889489651,0.6553727619490926,-0.598153195016613,-0.456500754957102,0.0656228535666633
3.2719960445165635,-9.478249449133873,-0.718593567609787,0.6348606969492254,-0.7236949830408376,-0.19721688409102675,-0.18526458814380067
3.165404811501503,-8.892595252990724,-0.7988365159928799,0.5177651043303354,-0.7424131625537462,0.0976690798167268,-0.4137665327844867
3.185764816403389,-8.94888522863388,-0.4575045713782311,0.326747587218804,-0.6508577881885951,0.3714634375263062,-0.575877650531847
3.408528822362423,-8.884212099909783,-0.17725308001041412,0.08770564997134972,-0.4643989829778886,0.5908849871495384,-0.6538319627652778
3.7295006158947945,-8.517729088068009,-0.39402880623936654,-0.1645597951438634,-0.21037767660208356,0.7240292372345714,-0.6359583088845083
3.78938341319561,-8.578809687495232,-0.849138065725565,-0.3927600659287491,0.07446721898583582,0.7515985326636525,-0.5246844857683565
3.523503793179989,-9.083022694587708,-1.0096239624917507,-0.5631366982777426,0.3489627251149553,0.6692440527173866,-0.3364735850488038
3.184567306637764,-9.329740111827851,-0.8371615062654019,-0.6506868106402934,0.572618791461675,0.4887233452816615,-0.09931709772458906
3.1510329401493076,-9.177637660503388,-0.7365584068000317,-0.6414943975899426,0.7145579504526115,0.22999796423387622,0.15809114381884995
3.365413208305836,-9.243508883714677,-0.7712904292345047,-0.5375689988095649,0.7473818236045516,-0.05694977325369032,0.38625989254745335
3.5965609520673754,-9.445912592411041,-0.7042216962575912,-0.35503452185925216,0.6708103857507313,-0.3354247431983947,0.5580807793746513
3.6983615612983707,-9.273450136184692,-0.6682920178771019,-0.12034019718520486,0.4961269452801087,-0.5647475668147799,0.648410731624053
3.6480600115656854,-8.788399624228479,-0.8671029049158097,0.1322718698408478,0.2488713094194909,-0.7115370570437821,0.6436476056431091
3.5318875309824946,-8.905769614577293,-1.0168098981678486,0.3652974329443399,-0.03497868367694735,-0.7541873377216239,0.5445509496758523
3.45164443641901,-9.389622616767884,-0.9976474030315876,0.5481331341292132,-0.3200848992477373,-0.6833019843753664,0.36082422686390997
3.4588303720951084,-9.509388211369515,-0.9832755316793919,0.645792959054718,-0.5512605887898047,-0.5125184638794081,0.12801578599985639
3.4887719169259075,-9.399203864336014,-0.8946489916741849,0.6493065286071408,-0.701552144947589,-0.26652860349475593,-0.123240104457585
3.476795357465744,-9.457888859510422,-0.6898498249053956,0.5583856189865204,-0.748961221525903,0.01855204282317516,-0.35625610291832854
3.489969426691532,-9.371657631397248,-0.6048162527382374,0.3861311044415816,-0.6867930829267702,0.3007228944316181,-0.5373860550771082
3.5510500261187556,-8.930920243263245,-0.6239787478744984,0.15729379231714588,-0.5243167736457465,0.5388467167219128,-0.6403083629394672
3.4935625407099726,-8.485392231345177,-0.6275717157125473,-0.094738395916448,-0.2851948795127854,0.6983815571248467,-0.6495781074718734
3.3306813320517543,-8.505752820968628,-0.4670858189463616,-0.33812999917283604,0.0027599120669273007,0.7560502929689867,-0.5604002507550029
3.2863679158687593,-8.651866554021836,-0.38684287056326866,-0.5258604144252316,0.284049443581006,0.7005864786191491,-0.3898273003752626
3.3737969461083415,-8.865049604773521,-0.4706787867844105,-0.636366604925331,0.5238199823195699,0.5426037304448441,-0.1619609890247402
3.39056412935257,-9.23153203189373,-0.5593053267896175,-0.6534321236996252,0.687014214665496,0.30498066212497627,0.08958082548604078
3.327088218033314,-9.471063221096992,-0.35091319218277933,-0.5748100224430519,0.7494168208112566,0.022376831401639388,0.3278218177617066
3.269600732624531,-9.427947607040405,0.1029984113574028,-0.4123130463954756,0.7016627828097615,-0.26343861370771937,0.5179453521362064
3.4013428866863253,-9.083022694587708,0.16048589676618577,-0.1894299188916738,0.5512100908689656,-0.5103481873264656,0.6323199105243416
3.683989689946175,-8.787201529741287,-0.3269600732624531,0.06761417561977381,0.31415307633561496,-0.6854187870563507,0.6534043573732339
3.598956263959408,-8.853072752952576,-0.5736771981418133,0.30899462635117636,0.035656601803633454,-0.7552116643100563,0.5769803027174748
3.218101673126221,-8.860258980989457,-0.4515162916481495,0.5049093989630182,-0.24846916038076217,-0.7144966761036482,0.41572115055084835
3.0791735833883287,-8.924932109713556,-0.3257624173164368,0.6264545265769792,-0.49624782359486835,-0.5690845796535532,0.19348272509221046
3.3175069704651836,-9.211172026991845,-0.3976217740774155,0.656035841635512,-0.6712170254765291,-0.3403112894167792,-0.057209313013836485
3.554642847776413,-9.59202632546425,-0.3988194300234318,0.589489935533893,-0.7476314885885074,-0.061651117964282666,-0.2995795600987048
3.528294416964054,-9.600410063266756,-0.184439015686512,0.43207970154547787,-0.7120899540428877,0.23274053575563286,-0.5020626174888448
3.4815859812498093,-9.328542017340661,-0.15928824082016946,0.21415972472383962,-0.5715778406713127,0.48590659556869303,-0.6255630781484559
3.576200654804707,-9.203985798954964,-0.37247099921107296,-0.035165160637919024,-0.3474306438855615,0.6676821659982218,-0.6574616980284832
3.5785959666967395,-9.248299507498741,-0.5856537576019765,-0.2793546582432482,-0.07247406154517425,0.7516395952592794,-0.5930821226098547
3.4815859812498093,-9.235125145912171,-0.6694896738231182,-0.4826964328406614,0.21329311542401005,0.7255208327611565,-0.44173489998547655
3.4109241342544556,-9.354890740513802,-0.5808631338179112,-0.6152529202198812,0.46785516168475155,0.5929293115248121,-0.2258544296234986
3.4217031839489938,-9.414773245453835,-0.407203021645546,-0.6578077467041062,0.6537653002179235,0.3733003618144753,0.022950827353638736
3.523503793179989,-9.323751393556595,-0.2838444592058659,-0.601741982898139,0.7445560262417258,0.09210594202203988,0.2739697159344056
3.5893750163912777,-9.090208922624589,-0.3173788256943226,-0.45774852704567653,0.7228731430122857,-0.1963996715671917,0.47890278147798687
3.528294416964054,-8.872235248088836,-0.4287608286738396,-0.24648365436486866,0.5953556313244747,-0.4561711560512873,0.6137632742092087
3.365413208305836,-8.774027752876282,-0.4838530021905899,0.0011393716744189585,0.3806069555218436,-0.64925540549898,0.658486496194824
3.2073226234316827,-8.730912138819695,-0.4084006775915623,0.24865852205667485,0.10993647535284966,-0.7473185631200445,0.6062985040487685
3.173788256943226,-8.878223381638527,-0.27186789974570275,0.4595111717775194,-0.17704007450527703,-0.7357782300438185,0.46490503463008753
3.2983444753289226,-9.243508883714677,-0.17964839190244675,0.6027327060835121,-0.4380769643069402,-0.6161392805447615,0.25529247018007817
3.3869710153341295,-9.572863830327988,-0.09820778757333756,0.6575542018345426,-0.6384602713280751,-0.3999829247297441,0.0021479082983481453
3.3929594412446025,-9.565678187012672,-0.10060309946537019,0.6134194685370548,-0.7394213620591821,-0.12906914851909682,-0.24558859878018868
3.3258907082676887,-9.493818830251694,-0.27186789974570275,0.4791801913719856,-0.731808132669653,0.1607089355393556,-0.4571825009698752
3.2336710542440414,-9.453098235726356,-0.3988194300234318,0.27455609978642714,-0.6167967306412127,0.4268304696570793,-0.6016614424347748
3.173788256943226,-9.41357573568821,-0.3473202243447304,0.029601367417401693,-0.41121030169050976,0.6302303124103303,-0.6579054644474367
3.1642070093750956,-9.299798274636268,-0.16527652055025102,-0.21965270688044858,-0.1452874654148627,0.7409794146250847,-0.6177327479220149
3.257624173164368,-9.278240759968758,0.03712733432650566,-0.4366738835704386,0.14194175729304442,0.7428857751283696,-0.48712337457362365
3.389366327226162,-9.336925755143167,0.05509217351675034,-0.5923389205728259,0.41405642097858475,0.6320601711694649,-0.2796280090446076
3.432481941282749,-9.321356374025346,-0.12096325054764748,-0.6565951001181983,0.6186996000801397,0.4299428392426426,-0.035253855752576745
3.3402625796198846,-9.286624497771264,-0.2970186746120453,-0.6244261154140579,0.7328116763899837,0.16480271226167995,0.21428751565736473
3.200136687755585,-9.22913701236248,-0.37247099921107296,-0.5005071152605064,0.7396243795030285,-0.12453447256008351,0.4323650887416192
3.1869626185297966,-9.163265789151191,-0.40361005380749704,-0.3029648383467952,0.6380595010659258,-0.3955562140668266,0.5870499649417593
3.288763227760792,-9.098592075705529,-0.36408740758895874,-0.060729371107276296,0.44292439187076876,-0.6084852377552658,0.6556490234910306
3.358227272629738,-9.060267085433006,-0.32456476137042045,0.19647717278204765,0.17604207815428222,-0.7338123247700362,0.6260394391013154
3.4001453769207,-9.021942095160485,-0.27785617947578434,0.41876811077151094,-0.11119775550557065,-0.7472246340649863,0.5039083992332637
3.346250713169575,-9.267462002635003,-0.2455194689333439,0.5793464164774941,-0.38222887986500037,-0.6507878878194885,0.3077887882611743
3.313914148807526,-9.63394442975521,-0.25150774866342546,0.6547449210824631,-0.597086785370472,-0.4586487398216344,0.06661675849740857
3.339064777493477,-9.710594410300255,-0.30420461028814316,0.634076040457532,-0.7241120724278549,-0.19911260324862945,-0.18429175974386183
3.357029762864113,-9.552503825426102,-0.4107959894835949,0.5203878280898062,-0.7447059746832456,0.08960425104189822,-0.4081428645000081
3.327088218033314,-9.449505706429482,-0.32336710542440417,0.3304526483771842,-0.6558189344295287,0.3651373359772697,-0.5721689420963402
3.3306813320517543,-9.31297263622284,-0.2239616619050503,0.08592333499602568,-0.465255431428636,0.5912417073592713,-0.6531368979840356
3.384575703442097,-9.106975813508035,-0.33414600893855095,-0.16610844555368018,-0.20992870783094295,0.7244117909257168,-0.6352680372189098
3.3546344509720805,-9.006372714042664,-0.3173788256943226,-0.3938270806751371,0.07632164656118155,0.7513000964136206,-0.5240452288896196
3.256426663398743,-9.055476461648942,-0.17725308001041412,-0.5635467159071637,0.3515307895431771,0.6678872689576151,-0.3358091704491399
3.275589158535004,-9.158475165367127,-0.10060309946537019,-0.6504027291794583,0.5751726666583901,0.4863262507710494,-0.09818080879664366
3.3067282131314277,-9.29381014108658,-0.0514992056787014,-0.6416736247764545,0.7142661812825655,0.233306393122174,0.15377551323467875
3.331878841817379,-9.375250745415688,0.03473202243447304,-0.5387383646216986,0.7484053299432162,-0.053984727177389134,0.3830614648185151
3.370203832089901,-9.275845155715944,-0.09102185189723969,-0.35140335560976804,0.6695948839403292,-0.33950424195429446,0.55937039853944
3.384575703442097,-9.184823303818703,-0.33175069704651833,-0.11584722846526709,0.49303602537186225,-0.5682008193254842,0.6485697543520519
3.2839726039767267,-9.23153203189373,-0.32456476137042045,0.1366832407509234,0.24399662056746607,-0.7134653937277476,0.6424565921542025
3.191753242313862,-9.257880755066871,-0.15928824082016946,0.3691215593904631,-0.04098481027323779,-0.7538905304612664,0.5419581052081885
3.3211000844836236,-9.289019517302513,-0.0407203021645546,0.5473454584263927,-0.3197812729988561,-0.6834772812319166,0.36195537379497567
3.4935625407099726,-9.351297626495361,-0.12455621838569642,0.6452800575364386,-0.5515269589108438,-0.5126724198546163,0.1288357514851339
3.510329723954201,-9.438726364374162,-0.19761323109269144,0.6474604044639318,-0.7046465910783686,-0.26000353830727696,-0.12909828194338063
3.3666110104322433,-9.375250745415688,-0.14970699325203896,0.5535950043639161,-0.7495728702694173,0.025752317062586624,-0.3619528995122034
3.2324735444784167,-9.19081202208996,-0.16168355271220208,0.3785293789623793,-0.6845621631774129,0.307693250449242,-0.5416779648796844
3.2588219752907754,-9.086615808606147,-0.27785617947578434,0.14780944524701525,-0.5192748882763417,0.5444494463349692,-0.6419351670432989
3.3175069704651836,-9.081825184822083,-0.34252960056066517,-0.10480450894139517,-0.2778736665615086,0.701411012538188,-0.6479389105674781
3.3258907082676887,-9.068650823235512,-0.2694725878536701,-0.3421527157412191,0.004389723775852358,0.7555308960371108,-0.5586459653210079
3.3354719558358195,-9.045895214080812,-0.1329398100078106,-0.5291803977974837,0.2860818452703762,0.6987144222578021,-0.38719948414549754
3.3869710153341295,-9.120150175094604,-0.0718593567609787,-0.63988779457481,0.5307073467251973,0.5343287460419134,-0.15292518968228624
3.4624234861135483,-9.280635779500008,-0.20479916676878931,-0.6529285391757119,0.6909450973353298,0.2941283619705319,0.09883168460910831
3.4732022434473038,-9.453098235726356,-0.3173788256943226,-0.570148103768445,0.7496206673351278,0.010746898936098707,0.33598288503514795
3.3414600893855098,-9.435133835077286,-0.3257624173164368,-0.40375686066643757,0.6981173818545119,-0.27428692833891843,0.5238121796596424
3.2971469655632974,-9.286624497771264,-0.3557038159668446,-0.17815500308707208,0.54406165499141,-0.5189311449279692,0.6347977451651826
3.3354719558358195,-9.170451432466507,-0.40241239786148075,0.07361258710245833,0.31020057807632423,-0.6872841254087032,0.6526847013239939
3.380982881784439,-9.135719556212425,-0.31378585785627366,0.3146586343994541,0.030754198526731603,-0.7547228158464591,0.574837015432758
3.3797850796580318,-9.092603942155838,-0.13773043379187586,0.5133775411359398,-0.25977107572412395,-0.7089859162576384,0.4078007589775486
3.4169125601649286,-9.081825184822083,-0.14611402541399002,0.631259634950442,-0.5053234814548284,-0.5589109193838915,0.18378802073600856
3.4001453769207,-9.180032680034637,-0.2024038548767567,0.6563031759852718,-0.6767593115276158,-0.3267190797435634,-0.06721323072009026
3.3091235250234607,-9.34171637892723,-0.15569527298212052,0.5849089480328424,-0.7488166507863875,-0.04645357168058643,-0.3082161768861065
3.243252301812172,-9.42076196372509,-0.1640788646042347,0.42763177947835057,-0.7108360163527201,0.24066252297161494,-0.503909484999947
3.304332901239395,-9.354890740513802,-0.23593822136521342,0.20760179983919086,-0.5684589127804379,0.4922490996889938,-0.6256570794288084
3.346250713169575,-9.280635779500008,-0.19641557514667513,-0.04286769029900244,-0.34261563399690603,0.6714655752912144,-0.655675887667196
3.3115188369154933,-9.205183893442154,-0.11976559460163116,-0.2925743709786705,-0.0595737685738673,0.7527319663144718,-0.5867246291342231
3.3546344509720805,-9.14649831354618,-0.17126480028033259,-0.49322802067514404,0.2259872417677575,0.7203876411078339,-0.43208509893095304
3.3785875698924066,-9.23752016544342,-0.046708581894636156,-0.6214483919227849,0.4784596518395731,0.5822815245498854,-0.21407121223088435
3.3402625796198846,-9.18961392760277,0.10539372324943543,-0.6583471856631543,0.660809751547973,0.3586847761631742,0.03542155752199788
3.470806931555271,-9.02074458539486,-0.12575387433171273,-0.5983883166499098,0.746181371824049,0.08261034670861087,0.2798576664241144
3.470806931555271,-9.418366359472275,-0.4634928511083126,-0.4505053879660759,0.7220139101419657,-0.20565546111474292,0.4831631611461363
3.2672054207324983,-9.727361885905266,-0.3988194300234318,-0.2309013486304015,0.5873547273203896,-0.46922717112041423,0.6176769814210223
3.0947429645061493,-9.50819070160389,-0.12814918622374535,0.017900589559147737,0.36825525155050287,-0.6571178924261889,0.657467652475979
3.243252301812172,-9.176440150737763,-0.016767183244228365,0.2640865451655034,0.09520810866012676,-0.7484436649675291,0.6008542194891229
3.5067366099357606,-9.089010828137399,-0.1760554240643978,0.4716929009444576,-0.19158405512950685,-0.7299681476357802,0.45601300470044037
3.5199109715223313,-9.151288937330246,-0.2694725878536701,0.61015824934967,-0.4504194146792384,-0.604383453485292,0.24402848764795915
3.280379782319069,-9.090208922624589,-0.16886948838829996,0.6588064547167699,-0.6433236115242383,-0.3899925121209941,-0.003824469700173317
3.1761835688352584,-9.031523342728615,-0.06946404486894608,0.610511535738175,-0.7418098977364853,-0.11833374838215743,-0.2509798086393178
3.304332901239395,-9.188416417837143,-0.12455621838569642,0.46820784527055226,-0.7297490381278853,0.17738160836481337,-0.4656001718131609
3.4169125601649286,-9.38842510700226,-0.1724624562263489,0.2595336758079605,-0.6093636208733872,0.44011754184700186,-0.606312459080494
3.3857735055685043,-9.314170145988465,-0.16527652055025102,0.012852768534250294,-0.39943525569695104,0.638136988901962,-0.6580786170682447
3.3366694656014446,-9.11535955131054,-0.20479916676878931,-0.23570543447917602,-0.13080079809314535,0.7424420093231979,-0.6132813075313087
3.3474485152959828,-9.03032583296299,-0.2790538354218006,-0.4496579189249155,0.15696398980261586,0.7377511890149583,-0.47842788898680816
3.357029762864113,-9.007570223808289,-0.368878031373024,-0.5976271156838223,0.4217354444430578,0.6247927675668459,-0.27315754263064596
3.3402625796198846,-9.027930813431741,-0.3772616229951382,-0.6577262233439283,0.6246650768537452,0.4200291900380665,-0.02766290658993901
3.3055304110050203,-9.069848333001136,-0.2874374270439148,-0.6189809837019311,0.7372503041718422,0.1466451984804239,0.2276394442458354
3.3402625796198846,-9.145300803780556,-0.31019289001822475,-0.488938246831824,0.7376084993664248,-0.14250256256240906,0.4433577698773078
3.376192258000374,-9.31656575024128,-0.3557038159668446,-0.28707632239860875,0.6294399459859539,-0.4106485817540369,0.5939362607373687
3.361820386648178,-9.431540721058846,-0.30420461028814316,-0.04317948312613774,0.42862708274378564,-0.6183276902027877,0.657331897677267
3.3151116585731506,-9.431540721058846,-0.14611402541399002,0.2069181632529796,0.1646448955242124,-0.735002988020164,0.6243777219722573
3.331878841817379,-9.365669497847557,-0.04191795811057091,0.4265126828127168,-0.12343368517635303,-0.743529369630508,0.5000151330315346
3.3929594412446025,-9.214765141010284,-0.08263826027512551,0.5864007093852059,-0.39920793460253756,-0.6392246721202341,0.29691589976908017
3.352239139080048,-9.140510179996491,-0.12096325054764748,0.655633616786421,-0.6096107256011376,-0.44223641568019795,0.0542796132810661
3.2516360396146777,-9.051883932352066,-0.184439015686512,0.628495871712694,-0.7306783791775678,-0.18040068438748394,-0.1963609903088457
3.2396594801545144,-9.063860199451447,-0.23953118920326233,0.5089391364727787,-0.7446075523917521,0.10789185539329463,-0.418210348780729
3.219299182891846,-9.160870184898377,-0.184439015686512,0.3144944594759303,-0.6492546172980982,0.38045227364883405,-0.5786343788191946
3.2672054207324983,-9.223148294091224,-0.10539372324943543,0.07375305097057949,-0.45852672749597073,0.5971471627680494,-0.6540099339019521
3.3031350991129877,-9.31297263622284,-0.031139054596424104,-0.17782716520483371,-0.20033742563371376,0.7260567573413041,-0.6333119297192337
3.3211000844836236,-9.32015886425972,0.015569527298212052,-0.4080787100180908,0.09418378994550053,0.7473560153527528,-0.5158102039098577
3.3115188369154933,-9.354890740513802,0.0203601510822773,-0.572439193952185,0.36818927541048707,0.6569622757651232,-0.32426932466945335
3.274391356408596,-9.317763260006904,0.010778903514146806,-0.6526416760094009,0.5880958040068566,0.470062510119629,-0.08510819364316663
3.2540313515067103,-9.363274478316308,-0.05628982946276665,-0.6369125765533603,0.7216224582586174,0.21419378854423327,0.1665065119267663
3.230078232586384,-9.348902606964112,-0.0514992056787014,-0.5275898711396909,0.7491917802744167,-0.0731651280255562,0.393709878312773
3.243252301812172,-9.34171637892723,-0.0706617008149624,-0.34074467129979263,0.6667454781890406,-0.3497006565311064,0.5630745839735416
3.276786668300629,-9.40399448812008,-0.0814406043291092,-0.10391069985859695,0.4864112156155332,-0.5747828504151256,0.6497933291801166
3.331878841817379,-9.39800635457039,-0.0814406043291092,0.1541651504340967,0.22807877017093045,-0.7175375898285878,0.6398069929063995
3.3402625796198846,-9.31896076977253,-0.07425466865301132,0.38355597566299376,-0.05839402929902916,-0.7504629436534812,0.5350516994444418
3.3438554012775423,-9.195602645874024,-0.11737028270959855,0.5566777513084133,-0.3363403931342291,-0.6732971578919034,0.35164749155824476
3.313914148807526,-9.152487031817437,-0.15569527298212052,0.6479992697609996,-0.5649415107336437,-0.49734579220444175,0.11655556106739814
3.2588219752907754,-9.207578912973405,-0.1413234016299248,0.6440845080843618,-0.710673505397662,-0.2483736256948079,-0.1356792439201379
3.2288804304599763,-9.253090131282807,-0.05269686162471771,0.5455140929230544,-0.7520749378306801,0.03712128381215139,-0.367994120330004
3.3055304110050203,-9.328542017340661,-0.017964839190244674,0.36682599125306015,-0.68298529354172,0.31711407927387747,-0.5462677380856583
3.4001453769207,-9.42675009727478,-0.038324990272521973,0.12832299014009302,-0.508448785096628,0.5551483691334672,-0.6456185649311211
3.3989475747942928,-9.433935740590096,-0.03473202243447304,-0.12384622384193311,-0.26212811131684816,0.7053108720339116,-0.6469061291163649
3.3354719558358195,-9.31656575024128,-0.07784763649106026,-0.3577861255819444,0.022646654814862766,0.7519105811491679,-0.5532690984707876
3.3103210347890855,-9.206381403207779,-0.1952179192006588,-0.5392459072499082,0.3040786108703811,0.6881646561896201,-0.3783906128550029
3.2636125990748406,-9.230334522128105,-0.24312415704131127,-0.6415266381077838,0.5409424293547326,0.5234007824343511,-0.14790700344822816
3.2013344898819924,-9.285426403284074,-0.1018007554113865,-0.6495966820711394,0.6983956001145614,0.28178548419837113,0.10423376265816277
3.227682920694351,-9.257880755066871,0.0035929678380489352,-0.5590412183681711,0.7532984237963376,-0.008117136782148876,0.3463358384023289
3.3474485152959828,-9.253090131282807,-0.004790623784065247,-0.3873814301733942,0.6950070185396432,-0.29034959950091993,0.531599456176459
3.3785875698924066,-9.370460121631623,-0.09940544351935388,-0.15884059482603305,0.5346712407787414,-0.5299332676207235,0.6388012692443995
3.327088218033314,-9.459086953997613,-0.11377731487154961,0.09297929628142024,0.2957705235132205,-0.6916716638260387,0.6522767490443353
3.2408569899201396,-9.383634483218193,-0.08024294838309289,0.33109682528651674,0.013424188720595887,-0.7518315850043726,0.5700385524086914
3.249240727722645,-9.271054531931878,-0.050301549732685094,0.5206184960506511,-0.27089381099597076,-0.701592859540635,0.40415391149366886
3.3019375893473626,-9.226741408109666,-0.0718593567609787,0.6337424017807062,-0.5154082854146717,-0.5483770454569452,0.17890635407117822
3.3067282131314277,-9.145300803780556,-0.1317421540617943,0.6530637312529736,-0.6871619400780619,-0.308391042512238,-0.07881114088955371
3.25043823748827,-9.112963947057725,-0.10778903514146805,0.5747932960103617,-0.7530130964586103,-0.027815137873379754,-0.31907720308484194
3.2216944947838786,-9.104580793976783,-0.016767183244228365,0.4120155855279599,-0.708282408410743,0.2568797757414441,-0.5124372820482086
3.274391356408596,-9.18961392760277,0.04191795811057091,0.18869706671899852,-0.559536745701862,0.5038266693503233,-0.6304528011456336
3.371401634216309,-9.32255388379097,0.016767183244228365,-0.062413915641522474,-0.32855415159856965,0.6767930946516116,-0.6558260284812824
3.3606225845217708,-9.41716884970665,0.03353436648845673,-0.30425107312096994,-0.04926578300972233,0.7502844888513234,-0.5848737922990612
3.275589158535004,-9.330937621593476,-0.03233671054244042,-0.5013679925974442,0.23731914465348466,0.7135500402868445,-0.42796740481769174
3.2204969850182534,-9.28422889351845,-0.09341716378927231,-0.626675422850799,0.4942795005812715,0.5674489103302194,-0.2024041102965739
3.1977413758635524,-9.304588898420334,-0.092219507843256,-0.6560479485815116,0.6719765748441815,0.34019408061779416,0.048130650684218346
3.224089806675911,-9.22913701236248,-0.043115614056587225,-0.5891256953354648,0.750939133958371,0.06299433138781152,0.2916385543757194
3.2971469655632974,-9.112963947057725,-0.02994139865040779,-0.43567448114153573,0.7196335670262234,-0.22337907173156085,0.49235867617369555
3.374994455873966,-9.11535955131054,-0.021557807028293612,-0.21820915916296568,0.5826715145720865,-0.47694935697110485,0.620804300765154
3.3666110104322433,-9.2219507843256,0.08503357216715814,0.03128819857363052,0.36005785424802966,-0.6605378868639907,0.6580798509615499
3.3558319607377056,-9.248299507498741,0.1233585624396801,0.2817182843355823,0.07765285682993081,-0.7478764068943738,0.5960584888313623
3.352239139080048,-9.328542017340661,0.06347576513886452,0.4846259631125495,-0.21005238495350514,-0.7220529284417945,0.4468279758264999
3.2899610298871997,-9.389622616767884,-0.004790623784065247,0.6163151296560281,-0.46693629271653486,-0.590175393343202,0.23198957863104228
3.2528335493803024,-9.3321351313591,-0.11138200297951699,0.6574730387524452,-0.6552224269325584,-0.3716540101027787,-0.016913643390986752
3.227682920694351,-9.295007650852204,-0.11617262676358224,0.6021190857714969,-0.7472652763127619,-0.09851892253207499,-0.26332723989368756
3.25043823748827,-9.254287641048432,-0.04790623784065247,0.45837706817745993,-0.7295106131385192,0.18907632135936506,-0.47112086919230006
3.307925722897053,-9.160870184898377,0.0,0.24734829043335205,-0.6046522776831402,0.44877483855002864,-0.6097668329752649
3.3833781936764717,-9.110568927526474,-0.023953118920326234,-0.006212512948501441,-0.3851034632575919,0.6461517200194521,-0.6588965639505013
3.3594250747561456,-9.186021398305893,-0.06467342108488083,-0.2531540742793484,-0.11315074045655882,0.7431518585018901,-0.6089624289027078
3.3067282131314277,-9.262671378850937,-0.04790623784065247,-0.46289012098002974,0.17550127307549623,0.731038634145669,-0.46958977249766437
3.288763227760792,-9.360878874063493,0.07305701270699501,-0.6046411796966696,0.4383617796805138,0.611496488486095,-0.26138102168965405
3.333076643943787,-9.277043250203134,0.10898669108748436,-0.6576804708914297,0.6367479746919944,0.4022286352618916,-0.014850586150942504
3.414517248272896,-9.176440150737763,-0.0407203021645546,-0.6141686483994766,0.7416938597036206,0.13391928471757128,0.23399298062514623
3.3797850796580318,-9.21955576479435,-0.11617262676358224,-0.48044877431263927,0.737755762965504,-0.15411945916642944,0.4484780950937482
3.268403222858906,-9.235125145912171,-0.1018007554113865,-0.27056762305342136,0.6215941843771481,-0.42531469038683284,0.5996009051401459
3.2348688563704493,-9.230334522128105,-0.046708581894636156,-0.025160531860717875,0.41558908451580656,-0.6272762272197057,0.6581619825185983
3.293553851544857,-9.267462002635003,0.04431327000260353,0.22391734284487602,0.14857768024835127,-0.737096990242092,0.6200594515700557
3.3869710153341295,-9.291415121555328,-0.004790623784065247,0.440192151830728,-0.14024304988080863,-0.7386673501620082,0.4908495718969298
3.413319446146488,-9.330937621593476,-0.08263826027512551,0.5918543255697151,-0.408439719904175,-0.6317050368328412,0.2895413596518387
3.304332901239395,-9.353693230748178,-0.0035929678380489352,0.6565892522566985,-0.6166636780572687,-0.431878346692916,0.04579907907004727
3.2516360396146777,-9.299798274636268,0.08503357216715814,0.6249188242921395,-0.7342851826369056,-0.16864046611442787,-0.20460236263035866
3.3163094606995585,-9.260275774598123,0.050301549732685094,0.49753355461279947,-0.742958657149346,0.12609436976596422,-0.42961960583115527
3.3917616391181946,-9.23871825993061,-0.043115614056587225,0.29906281532164897,-0.6410440738972918,0.39554574693198924,-0.5858049930625954
3.3785875698924066,-9.251892036795617,-0.07305701270699501,0.056620314308302305,-0.44499906576104786,0.6070201353094721,-0.6559699130358755
3.3222975942492488,-9.203985798954964,-0.07305701270699501,-0.19416402530139357,-0.18364563820603588,0.7293977831270049,-0.6297249278979421
3.3055304110050203,-9.166858903169633,-0.10060309946537019,-0.4164411979429098,0.10466590417636999,0.7446950598579392,-0.5109315462779701
3.313914148807526,-9.235125145912171,-0.06467342108488083,-0.5775560813007812,0.3776587595797379,0.6505951967415923,-0.31706265034208636
3.3486460250616075,-9.289019517302513,-0.03712733432650566,-0.6544908987278407,0.5993974902038731,0.45540205382395954,-0.07052149737945616
3.3666110104322433,-9.259078264832498,-0.017964839190244674,-0.6324518957758494,0.7270005985953948,0.19677621246792845,0.18098025134872694
3.365413208305836,-9.261473284363747,0.06347576513886452,-0.517606735801787,0.7477449783009611,-0.09077359000944102,0.40585818931630835
3.377389767765999,-9.278240759968758,0.07425466865301132,-0.3267739424177094,0.658685268787417,-0.3649531910943558,0.5711056605824201
3.3917616391181946,-9.2219507843256,-0.06587107703089715,-0.08783040932716911,0.472953795953526,-0.5855785006881686,0.6524556273206394
3.3402625796198846,-9.213567046523094,-0.11976559460163116,0.16399972022236928,0.21774308226062714,-0.7202471442609464,0.637915427841793
3.2528335493803024,-9.202788289189339,-0.053894517570734025,0.3917511015704277,-0.06956063051453491,-0.7491500205866114,0.5295910117778214
3.2839726039767267,-9.183625794053079,0.02275546297430992,0.5650863146963045,-0.35270044803942335,-0.6647417657717566,0.33822808241538144
3.3690063223242763,-9.305786992907525,0.08503357216715814,0.6505877285836593,-0.577023378993667,-0.4833078913760499,0.10096093127899534
3.428889119625092,-9.368065102100372,0.046708581894636156,0.6405870357870025,-0.7165752693445024,-0.23088856183648268,-0.1511906245722795
3.408528822362423,-9.31656575024128,-0.06227810919284821,0.5364683288883401,-0.7508922245071405,0.05545556936836937,-0.3811656845788977
3.3294835299253465,-9.23871825993061,-0.10778903514146805,0.35358128544378337,-0.6749265307086308,0.3336786385685328,-0.5550792906356566
3.2288804304599763,-9.19081202208996,-0.08383591622114182,0.11874866526614816,-0.4997930245974425,0.5629781504050724,-0.6474266670656471
3.268403222858906,-9.253090131282807,0.053894517570734025,-0.13346014813392065,-0.2512643615786222,0.7094963733961355,-0.6447243640489252
3.357029762864113,-9.315368240475655,0.24312415704131127,-0.3711904231293245,0.041082828616686023,0.7514194136652079,-0.54396574867997
3.475597555339337,-9.230334522128105,0.1736601121723652,-0.5485165199399145,0.32077679507227486,0.6807193259621529,-0.3644901567364988
3.483981293141842,-9.21596265077591,-0.0071859356760978705,-0.6452474651190208,0.5533570100139258,0.5100761697110504,-0.1314307015838757
3.370203832089901,-9.280635779500008,-0.11377731487154961,-0.6471356799259568,0.7047413045675036,0.26444608176295265,0.12092714849645873
3.2480429255962373,-9.30339138865471,-0.04191795811057091,-0.5539845932819664,0.7525760678926372,-0.020079464113868444,0.3554253051801052
3.2707985347509387,-9.253090131282807,0.013174215406179428,-0.3795025094365593,0.6898598750443687,-0.3015644585069113,0.5377081694567748
3.3797850796580318,-9.184823303818703,-0.06227810919284821,-0.14317379773176855,0.5208914236754217,-0.5435966208214782,0.6423987096935401
3.408528822362423,-9.225543898344041,-0.08982419595122337,0.10920105900126834,0.2781721956095569,-0.6994541303812057,0.6491989508582335
3.3342741537094116,-9.235125145912171,-0.0514992056787014,0.34556317368359063,-0.005475486634883263,-0.7525645502944064,0.5605378753304844
3.2971469655632974,-9.235125145912171,-0.028743742704391482,0.5310999193927163,-0.2882809958105751,-0.6950591853483352,0.3895120947267517
3.3414600893855098,-9.286624497771264,0.028743742704391482,0.6386102541644938,-0.5286460008610858,-0.5354111281529177,0.1613854792091329
3.3917616391181946,-9.299798274636268,0.08982419595122337,0.652403049548764,-0.691327922001988,-0.297097798941294,-0.09038176289564387
3.438470367193222,-9.201590779423714,0.02754608675837517,0.5704149034636361,-0.7524656688809196,-0.015158036795054432,-0.328926266787377
3.4181100699305538,-9.180032680034637,-0.09102185189723969,0.3997920160466563,-0.7006276258545188,0.2754749361105167,-0.5228774554039574
3.3366694656014446,-9.235125145912171,-0.10419606730341911,0.17355519516916687,-0.5457682008404559,0.5187705154332852,-0.6347383850833727
3.313914148807526,-9.170451432466507,-0.11138200297951699,-0.07822187329850301,-0.3108139667890448,0.6858807876695061,-0.6533326577574318
3.3366694656014446,-9.188416417837143,-0.13653277784585954,-0.3185451069849582,-0.030185852570485002,0.7522889468070189,-0.5759159397277706
3.35104133695364,-9.292612631320955,-0.03233671054244042,-0.5120526435343297,0.25492533459632216,0.7081334429306676,-0.4139591659011995
3.327088218033314,-9.247101413011551,0.07305701270699501,-0.6303333658229203,0.502559544101485,0.5599399225128388,-0.1912616943853952
3.3917616391181946,-9.159672675132752,0.019162495136260987,-0.6560836440630166,0.6763266331456124,0.32952925594329874,0.05955675250019255
3.389366327226162,-9.23153203189373,0.013174215406179428,-0.5827156224604553,0.7511901751425759,0.04376697479664107,0.30698579124601233
3.323495396375656,-9.257880755066871,0.06946404486894608,-0.4244504908917079,0.7127109237012796,-0.24218584824962358,0.5032205629008687
3.339064777493477,-9.21835767030716,0.008383591622114182,-0.2038012548053228,0.5696285238632923,-0.49258070074012594,0.6255818464433484
3.3666110104322433,-9.265066398382187,0.025150774866342547,0.046732819433270185,0.3429121291639518,-0.6706558302759923,0.6560854156105604
3.3857735055685043,-9.21835767030716,-0.02994139865040779,0.2905133063984302,0.06584656228181296,-0.7503190028766549,0.590158998036378
3.3606225845217708,-9.243508883714677,-0.11138200297951699,0.49160223303537715,-0.22089232101875933,-0.7198198902577497,0.4374850312626674
3.268403222858906,-9.3321351313591,-0.06826638892292977,0.6204298694449977,-0.4752537279318511,-0.583563979657862,0.2205759570606454
3.2204969850182534,-9.400401374101639,0.092219507843256,0.6578766591413358,-0.663066971915218,-0.3554339348259884,-0.03474492892974642
3.2983444753289226,-9.362076383829118,0.20120619893074038,0.5968425152551671,-0.7480141368422004,-0.07957397239551624,-0.2791448476782279
3.4432609909772873,-9.174044546484948,0.13054449811577798,0.4482316342086687,-0.7231514401144427,0.20781013217992592,-0.48265447860596467
3.476795357465744,-9.151288937330246,-0.021557807028293612,0.2337832560217695,-0.5921955008178418,0.46472372816384844,-0.6153712168248193
3.3678085201978685,-9.207578912973405,-0.0718593567609787,-0.014961700126981137,-0.37435335350779525,0.6534850672425889,-0.6577180103492127
3.3019375893473626,-9.176440150737763,-0.09461481973528862,-0.2615686664549362,-0.10156445987175898,0.7464154985848006,-0.6034321806900489
3.331878841817379,-9.12853391289711,-0.1532999610900879,-0.47407240876861506,0.19284104299462745,0.7280857747521904,-0.4560249861406391
3.376192258000374,-9.206381403207779,-0.16527652055025102,-0.6113449491322995,0.45212258063782923,0.6018912349968264,-0.24406856922146028
3.358227272629738,-9.31297263622284,-0.09820778757333756,-0.6588114549042787,0.64498734953871,0.3872271506974907,0.003730895956785879
3.331878841817379,-9.354890740513802,0.08503357216715814,-0.6096233553257723,0.742993333799091,0.11563545138663643,0.25089582091790336
3.358227272629738,-9.333332641124725,0.17006714433431627,-0.4710499355327919,0.7318217172411273,-0.17285235259442908,0.46116265743376406
3.4300866293907166,-9.251892036795617,0.12096325054764748,-0.26340091245846736,0.6132017974126961,-0.43590235738875815,0.6038150791333461
3.4552375504374506,-9.196800155639648,-0.026348430812358856,-0.01709175274415281,0.40463214598661545,-0.6349679747026943,0.6578726088874332
3.371401634216309,-9.140510179996491,-0.10898669108748436,0.2374626638204735,0.12983476799030302,-0.7421527919994181,0.6131587475031709
3.2839726039767267,-9.158475165367127,-0.11138200297951699,0.4510021817888767,-0.15819285852525045,-0.7367369552392854,0.47832071909758456
3.29954227745533,-9.145300803780556,-0.11617262676358224,0.5983150104845537,-0.42299304115911446,-0.6232757075969068,0.27317288972262105
3.3666110104322433,-9.168056412935258,-0.15809058487415314,0.6577361728288383,-0.6257868319875133,-0.41833558081783234,0.02773643245464227
3.35104133695364,-9.247101413011551,-0.13054449811577798,0.6205001907058735,-0.7366949723057671,-0.15188090105670943,-0.22179319874058756
3.29954227745533,-9.324949488043785,-0.004790623784065247,0.49217570117776804,-0.7393177195203555,0.13688911578179416,-0.4386727239684179
3.3067282131314277,-9.344111983180047,0.09820778757333756,0.291656346711883,-0.633274856666416,0.405510487373048,-0.5911520751611055
3.370203832089901,-9.291415121555328,0.11018434703350068,0.042271285618351084,-0.42854090885571,0.6184778717252661,-0.6573058268686497
3.3821803915500643,-9.202788289189339,0.008383591622114182,-0.207836049674098,-0.1645925514691094,0.7348074418065169,-0.6243168201502477
3.3402625796198846,-9.2219507843256,-0.050301549732685094,-0.42733427228734444,0.12354212065370837,0.743250537474121,-0.499701313483826
3.2707985347509387,-9.22913701236248,0.025150774866342547,-0.5840516656077965,0.3935338834332129,0.6426023807498966,-0.30178952060218717
3.2971469655632974,-9.182428284287454,0.028743742704391482,-0.65502954275762,0.605767793405543,0.4477068236822326,-0.05950024046748929
3.3725991439819336,-9.220753274559975,-0.05509217351675034,-0.6298011315226777,0.7291232085685481,0.18715245349747867,0.19158246425321487
3.3833781936764717,-9.297403255105019,-0.12814918622374535,-0.5081808458887108,0.7445226153221219,-0.10777503022643589,0.4193123489779818
3.3151116585731506,-9.31656575024128,-0.12455621838569642,-0.3137716370648018,0.6489009893799931,-0.38018140411364215,0.5796006950664568
3.3067282131314277,-9.257880755066871,-0.07545232459902763,-0.07329346311144176,0.4579958066368009,-0.596726780996923,0.6548168127112254
3.3725991439819336,-9.287822007536889,0.011976559460163117,0.1779380384733321,0.1998225089629095,-0.72556755644332,0.634003738484956
3.433679743409157,-9.278240759968758,0.05988279730081558,0.4030870160161328,-0.08765706335041969,-0.7478274630592817,0.5201837966126097
3.466016307771206,-9.207578912973405,0.0203601510822773,0.5690905372221584,-0.36224057764079276,-0.6603028681957914,0.3300270392059884
3.4240984958410263,-9.202788289189339,-0.04910389378666878,0.6515431341604592,-0.5837131086614721,-0.47582995435058845,0.09141337783849338
3.361820386648178,-9.247101413011551,-0.10778903514146805,0.6367731687773446,-0.7215346094962286,-0.21486853054220723,-0.16655105345514074
3.3055304110050203,-9.257880755066871,-0.13773043379187586,0.5276581080654448,-0.7490930602238449,0.07224958433387635,-0.39397526023958984
3.3115188369154933,-9.261473284363747,-0.12934684216976167,0.34097519860658304,-0.666650600000834,0.34882739537915597,-0.5635888037272594
3.371401634216309,-9.266263908147812,-0.0514992056787014,0.10423000629065071,-0.48627512374019327,0.5740961878205996,-0.6504507490578866
3.3881688174605373,-9.285426403284074,0.11856793865561487,-0.14779249245288745,-0.23439860996781356,0.7149777015504072,-0.6418890535796796
3.408528822362423,-9.153684541583061,0.1928226073086262,-0.3781362766552877,0.05184771485625089,0.7507930387196049,-0.5391053549647252
3.4600281742215158,-9.139312670230867,0.1233585624396801,-0.5529444218490078,0.3304088414198294,0.6763843894993437,-0.3571926951930465
3.4169125601649286,-9.195602645874024,0.04790623784065247,-0.6476290359424233,0.5651915189850397,0.49750257563476763,-0.11673202606158846
3.3306813320517543,-9.180032680034637,0.016767183244228365,-0.6438224968718687,0.7108262244246072,0.2486040018168163,0.1357008528808681
3.300739787220955,-9.180032680034637,-0.038324990272521973,-0.5453412691570675,0.7521310071566721,-0.03680496770004826,0.3681674110785028
3.333076643943787,-9.235125145912171,-0.06706873297691346,-0.3666980261196753,0.6829559792999693,-0.31680741859735073,0.5465681544876511
3.377389767765999,-9.299798274636268,-0.021557807028293612,-0.13422640044393677,0.5134319210981051,-0.5502063190257175,0.6447045387815596
3.3929594412446025,-9.287822007536889,0.014371871352195741,0.11797183691500338,0.26845589142319476,-0.7027528845951594,0.6481916871175226
3.4217031839489938,-9.251892036795617,-0.025150774866342547,0.35800155980893344,-0.022852350015911342,-0.7518543597595416,0.5531976816506834
3.39056412935257,-9.23752016544342,-0.05988279730081558,0.539426618128425,-0.30429696661805755,-0.6880701695539123,0.3781292391916147
3.370203832089901,-9.194404551386834,-0.05628982946276665,0.6416424455348637,-0.5410954903738135,-0.5232160640547387,0.1474977718483542
3.3606225845217708,-9.260275774598123,-0.013174215406179428,0.6496174849181591,-0.6984321386496721,-0.281448718318077,-0.10476779059883912
3.370203832089901,-9.251892036795617,0.04191795811057091,0.562227487259696,-0.7531360383724632,0.001606210134053853,-0.3415900765000143
3.4025406888127327,-9.21835767030716,0.038324990272521973,0.39225837236918865,-0.6972395715242485,0.2844435249120073,-0.5282823396088396
3.3857735055685043,-9.241113279461862,0.03353436648845673,0.16473235185862542,-0.5389500259027354,0.5255147217411539,-0.6373620627742795
3.3642156985402107,-9.265066398382187,-0.025150774866342547,-0.09308403572860967,-0.295156086456548,0.692205774990419,-0.6519734749129317
3.361820386648178,-9.247101413011551,-0.1029984113574028,-0.3313298726780492,-0.012898292955280107,0.75228271719111,-0.5693196491651663
3.357029762864113,-9.241113279461862,-0.11976559460163116,-0.5208839783875716,0.27119368365474017,0.701903046490478,-0.40307068900168674
3.3630178964138033,-9.251892036795617,-0.004790623784065247,-0.6340225464553382,0.515493999204156,0.5483787168433036,-0.17765733951651463
3.39056412935257,-9.236322655677796,0.10060309946537019,-0.6541055456335625,0.6840392367289682,0.31430509760626935,0.07381438481342024
3.428889119625092,-9.201590779423714,0.1437187135219574,-0.5781933190085322,0.7521059670300129,0.034125634251076474,0.3144273227610933
3.4432609909772873,-9.175242056250573,0.07664998054504395,-0.4173546322146498,0.7097885419383013,-0.2510788373745342,0.5088956220333666
3.4240984958410263,-9.184823303818703,-0.03233671054244042,-0.1893156055745013,0.5586685638364722,-0.504627058008517,0.6303971522719009
3.3438554012775423,-9.20039326965809,-0.0011976559460163117,0.06173986133325612,0.32777580283371394,-0.6775979330327204,0.6554481320051568
3.318704772591591,-9.194404551386834,0.04551092594861984,0.30371296623996075,0.04873222892725571,-0.7510975653251856,0.5841541332251998
3.3929594412446025,-9.213567046523094,0.03473202243447304,0.501087664345608,-0.2373812341907697,-0.7142927033310033,0.4270213534038056
3.4552375504374506,-9.268659512400628,-0.0035929678380489352,0.6249204362109524,-0.4886510139913402,-0.5725410061655377,0.2071024654370435
3.427691317498684,-9.291415121555328,-0.021557807028293612,0.656943699246252,-0.6681215374418554,-0.3466591048549079,-0.043197826891816206
3.3666110104322433,-9.346507002711297,0.07425466865301132,0.5925961027140108,-0.7493819455687455,-0.06981939693213476,-0.2870223171040898
3.365413208305836,-9.30339138865471,0.11617262676358224,0.43672855523718873,-0.7185482191133343,0.22386791705062836,-0.4927877652345953
3.427691317498684,-9.180032680034637,0.03712733432650566,0.21945065108592268,-0.5816334445896119,0.4776786532838171,-0.6207793908223326
3.4252960056066515,-9.150091427564622,-0.039522646218538286,-0.03010470343534218,-0.3593124059818917,0.6614360045006971,-0.6576402616086763
3.3354719558358195,-9.157277655601503,-0.0011976559460163117,-0.27519399280499,-0.08420855659917034,0.7481346226285134,-0.5978894310355581
3.3031350991129877,-9.147696408033372,0.06467342108488083,-0.47984692816045404,0.20325373266367486,0.7250279838854992,-0.45029908758089643
3.3917616391181946,-9.22913701236248,0.05628982946276665,-0.6140620067087192,0.46084192055002665,0.5954918817428128,-0.2365206015530735
3.4636209958791735,-9.272252626419068,0.0,-0.6579539634208088,0.6542147257159655,0.3725162664329074,0.018201810847285907
3.4492491245269776,-9.300996369123459,-0.06706873297691346,-0.6030461743970019,0.7460257356314247,0.09906817900036212,0.2645116429011865
3.377389767765999,-9.315368240475655,-0.11617262676358224,-0.4595671650759869,0.7282407969545948,-0.18897675210591675,0.4719651995629088
3.3103210347890855,-9.3093795222044,-0.053894517570734025,-0.2487094091748845,0.6034404605000917,-0.4492119528053458,0.610091683172394
3.313914148807526,-9.205183893442154,0.05988279730081558,-0.0013536903965599564,0.38998460649816935,-0.6434542516963156,0.6586932519699231
3.384575703442097,-9.175242056250573,0.12216090649366379,0.24620930694266954,0.11925858183522242,-0.7431715083645981,0.6106181105965907
3.4540397483110428,-9.220753274559975,0.11976559460163116,0.4576235398689167,-0.16889426057323478,-0.7337548112881087,0.47292631710956234
3.4432609909772873,-9.211172026991845,0.09102185189723969,0.6043195622086759,-0.43795042487959945,-0.6126465097566342,0.26011833107781374
3.4013428866863253,-9.201590779423714,-0.008383591622114182,0.657835776808245,-0.636022324722478,-0.40317415899002373,0.013352555126070377
3.352239139080048,-9.296205745339394,-0.06706873297691346,0.6146550139641728,-0.7407647920474132,-0.1345048836304859,-0.2353192999972695
3.327088218033314,-9.30339138865471,-0.09341716378927231,0.48110710581789007,-0.7367585149368969,0.15395652930143658,-0.4494666066405464
3.346250713169575,-9.249497017264366,-0.0814406043291092,0.2768893880664453,-0.6245241261551479,0.4197416370325785,-0.5975942107881815
3.3402625796198846,-9.248299507498741,-0.03712733432650566,0.03197843989737223,-0.4204809712713678,0.6238833139587056,-0.6579838468718823
3.346250713169575,-9.21955576479435,0.019162495136260987,-0.21761056160337028,-0.15467083013115515,0.7362936525212063,-0.6217670263387938
3.370203832089901,-9.265066398382187,0.12216090649366379,-0.4397697947127575,0.1406525789262286,0.7392360999948233,-0.49025439127471765
3.403738198578358,-9.244706393480302,0.17006714433431627,-0.5916218019864694,0.40849470113707864,0.6321868149002652,-0.28888674878482967
3.4732022434473038,-9.188416417837143,0.09102185189723969,-0.6566333303730469,0.6163386227598356,0.4323494519311062,-0.04509238242300198
3.461225683987141,-9.20997451722622,-0.0071859356760978705,-0.6252194041059306,0.7337382428857128,0.16905848665932982,0.20530006270059742
3.3857735055685043,-9.213567046523094,-0.031139054596424104,-0.5019488322565178,0.7434720379087323,-0.11912055284894284,0.42556667225373407
3.3342741537094116,-9.205183893442154,-0.043115614056587225,-0.30490238581672596,0.6440939541110913,-0.3898078344757203,0.5832901212794172
3.3486460250616075,-9.193207041621209,-0.05628982946276665,-0.05691209426865042,0.4445571296651534,-0.6073957672479743,0.6558966030702407
3.3558319607377056,-9.20997451722622,-0.05509217351675034,0.1939948360573566,0.18329453566420534,-0.7298432031591451,0.6293631825751499
3.3450532034039497,-9.275845155715944,0.013174215406179428,0.4163365782029137,-0.10488654975238966,-0.7450303053894916,0.510482623977124
3.3737969461083415,-9.31057761669159,0.11737028270959855,0.5775998321889456,-0.377612745498328,-0.6507266261999006,0.31676790596114945
3.4217031839489938,-9.205183893442154,0.11976559460163116,0.6541185551282307,-0.5948479332213432,-0.46089775583910403,0.07653829656929757
3.4552375504374506,-9.11895266532898,0.02994139865040779,0.6346163639614787,-0.7247574799706826,-0.20346603934693827,-0.174900647944276
3.403738198578358,-9.156079561114312,0.015569527298212052,0.5219335692067641,-0.7483235196607931,0.0839575327463881,-0.40068490357475367
3.352239139080048,-9.186021398305893,0.07425466865301132,0.32727936514011113,-0.6586957695411154,0.36516553837209514,-0.5706682310480772
3.370203832089901,-9.183625794053079,0.10419606730341911,0.08830125505946858,-0.47316246560594455,0.585843554855913,-0.6520026830699495
3.4360750553011896,-9.22793891787529,0.038324990272521973,-0.1636998817631697,-0.21819730305727872,0.7204939193904474,-0.637558466158709
3.4588303720951084,-9.289019517302513,-0.06347576513886452,-0.39167728756036535,0.06879785610543156,0.7493469068548437,-0.5294666850631202
3.352239139080048,-9.314170145988465,-0.0023953118920326233,-0.5621129195973817,0.34579213971441947,0.6680871155071194,-0.34368076441198686
3.318704772591591,-9.296205745339394,0.08742888405919075,-0.6500022260536171,0.5719490514615222,0.4886860734090647,-0.10750493157821887
3.3737969461083415,-9.260275774598123,0.11856793865561487,-0.642534901139487,0.7140307905892789,0.23760708778497558,0.14440153303362804
3.4552375504374506,-9.201590779423714,0.09341716378927231,-0.5372519588932834,0.7508383527214939,-0.05525029176676078,0.3801966675386451
3.457632862329483,-9.21955576479435,0.043115614056587225,-0.3545049471819303,0.6752626977581584,-0.33342865512745473,0.5542308755201281
3.4061335104703905,-9.243508883714677,0.028743742704391482,-0.1197021229619544,0.5005439513878643,-0.5627090328143102,0.646904706179054
3.361820386648178,-9.213567046523094,-0.017964839190244674,0.13271307806786156,0.2523775074376368,-0.7094153091800885,0.6445329718100065
3.377389767765999,-9.196800155639648,-0.09461481973528862,0.3656640144719925,-0.032789328028520505,-0.7520018408994048,0.5474558610258647
3.370203832089901,-9.20997451722622,-0.11138200297951699,0.5449567465262898,-0.31318509740142797,-0.6841616069774326,0.3699461240764611
3.346250713169575,-9.260275774598123,-0.0011976559460163117,0.6442183168533814,-0.5475664064323396,-0.5158038665238953,0.13820333590897815
3.3833781936764717,-9.285426403284074,0.12934684216976167,0.6478699991989686,-0.7039761489181573,-0.2652011195309187,-0.11979320553285236
3.4947600504755973,-9.30698450267315,0.13773043379187586,0.5552879729381837,-0.7521952007929948,0.01921051608858545,-0.3542437057814852
3.5630265855789185,-9.317763260006904,0.09940544351935388,0.3812700185236518,-0.689980084820776,0.30074932960145245,-0.5367592535485215
3.489969426691532,-9.321356374025346,0.05988279730081558,0.1512991352407764,-0.5264681624447217,0.538259034169635,-0.6404818949371192
3.4001453769207,-9.251892036795617,0.0035929678380489352,-0.10087669485196826,-0.2856829122351324,0.6968097579298235,-0.6501271624431466
3.3737969461083415,-9.205183893442154,-0.05269686162471771,-0.3382085332130405,-0.0030254657060848522,0.7530859861094609,-0.5643290991475505
3.3546344509720805,-9.176440150737763,-0.005988279730081559,-0.5295911468623392,0.2865220328489924,0.696228151458116,-0.39077449120218666
3.384575703442097,-9.129731422662735,0.08263826027512551,-0.6380416120712283,0.5270702214641484,0.5371511549810553,-0.16299852641603862
3.4492491245269776,-9.14649831354618,0.1532999610900879,-0.6528275472858833,0.6902216528940617,0.2992284533557478,0.0887276511760243
3.461225683987141,-9.183625794053079,0.2239616619050503,-0.5717730553111265,0.7520433108990696,0.017368344684099202,0.32742139874339177
3.467214109897614,-9.144103294014931,0.18324135974049569,-0.40674001418334327,0.7035026626372484,-0.26699957540292496,0.5180326160186186
3.4432609909772873,-9.166858903169633,0.058685141354799276,-0.18192056965244,0.5517288341403268,-0.5122476718669594,0.6325365780588244
3.374994455873966,-9.232729541659356,-0.013174215406179428,0.06960645294601434,0.31893268120222884,-0.6823563552776175,0.6540846206582736
3.323495396375656,-9.2219507843256,0.0035929678380489352,0.31628424362561014,0.032360308315669585,-0.7526348336342766,0.5765916188084902
3.3594250747561456,-9.205183893442154,0.08862654000520706,0.5104473303181168,-0.25268450725682695,-0.7094149090719386,0.4151199218899702
3.4552375504374506,-9.188416417837143,0.057487485408782964,0.6296646471215898,-0.5005631944479466,-0.5620169529100891,0.19260286906214472
3.504341298043728,-9.266263908147812,0.0,0.6564211343451607,-0.674867162842165,-0.3320806372086804,-0.058207020997952656
3.438470367193222,-9.324949488043785,0.05509217351675034,0.5868034825671448,-0.7500421234625553,-0.0532531688943183,-0.30043732438158344
3.357029762864113,-9.289019517302513,0.11976559460163116,0.43106299788796426,-0.7150288249109638,0.2333924331444521,-0.4984440224831669
3.376192258000374,-9.248299507498741,0.12695153027772904,0.21208162576352743,-0.5749936691893709,0.48572185568210796,-0.623279987901403
3.4121219363808635,-9.287822007536889,0.14970699325203896,-0.04409735993408287,-0.3443990327163725,0.669887061490407,-0.6562743739920207
3.4217031839489938,-9.265066398382187,0.1640788646042347,-0.2879999016514136,-0.0677637465979593,0.750378081266733,-0.5910980176334886
3.438470367193222,-9.164463298916818,0.09701013162732125,-0.4897035410559577,0.21885755882606805,0.7207628562461026,-0.43908167335691667
3.4552375504374506,-9.130928932428361,-0.025150774866342547,-0.6194706522959236,0.4733265610674869,0.5854011739833259,-0.22253885735087528
3.4300866293907166,-9.181230774521827,-0.0814406043291092,-0.6582298294788301,0.6583471314200329,0.36414206116386627,0.026704033901551197
3.4001453769207,-9.201590779423714,-0.06467342108488083,-0.6002791046072602,0.7467550186315856,0.08937961039087984,0.27209047018743765
3.395354753136635,-9.225543898344041,0.0011976559460163117,-0.4496734649288903,0.7236260628432142,-0.20521595667659587,0.4817110204657811
3.4109241342544556,-9.268659512400628,0.13653277784585954,-0.2356443737549315,0.5933126297716116,-0.4627462394983622,0.615075418384823
3.4360750553011896,-9.256682660579681,0.21797338217496873,0.012961101944905474,0.3758612042829468,-0.6522379631615988,0.6581382866557419
3.461225683987141,-9.248299507498741,0.14731168136000633,0.25965502581101907,0.10324160644518617,-0.7459447304285983,0.6045551235540909
3.44206318885088,-9.251892036795617,0.057487485408782964,0.4682218370045725,-0.18458091966761686,-0.7301077745440873,0.4622129736355313
3.370203832089901,-9.206381403207779,0.058685141354799276,0.6079849605431064,-0.4453518394053704,-0.6070371274811649,0.2520356180206809
3.361820386648178,-9.156079561114312,0.06946404486894608,0.6584372604571205,-0.6407068453631889,-0.3948814025308867,0.004877528238028772
3.427691317498684,-9.194404551386834,-0.015569527298212052,0.6098711629335035,-0.7431386878226425,-0.11797055870375915,-0.2487669643712766
3.464818798005581,-9.226741408109666,-0.06706873297691346,0.47170154068239945,-0.7328332192067823,0.17032651894985512,-0.45982823563511116
3.414517248272896,-9.239915769696236,-0.013174215406179428,0.26425346421132306,-0.6148400830385861,0.43369984116336563,-0.6033624339617862
3.357029762864113,-9.286624497771264,0.12934684216976167,0.018119703764307663,-0.40645458814299135,0.6333410665101545,-0.6582897823791473
3.3929594412446025,-9.260275774598123,0.2071944786608219,-0.23063314988657085,-0.13841540833905192,0.7398778051782022,-0.6166282172528421
3.4624234861135483,-9.180032680034637,0.13054449811577798,-0.4455630712965362,0.14989393726462416,0.7377834806330621,-0.4844387399590072
3.4552375504374506,-9.081825184822083,-0.015569527298212052,-0.5950694082726153,0.4162352680151803,0.6274236439138876,-0.2810341119085538
3.3821803915500643,-9.12134768486023,-0.06227810919284821,-0.6574177881993418,0.6254329814574737,0.41919214426019547,-0.03022223775368328
3.323495396375656,-9.170451432466507,-0.0407203021645546,-0.6205797300546679,0.7370405918027937,0.1532387610403026,0.21947630121517933
3.370203832089901,-9.194404551386834,-0.0011976559460163117,-0.4925827161067373,0.7403885835034542,-0.13517220524391024,0.43693876932604225
3.4408656790852548,-9.249497017264366,0.08982419595122337,-0.2923129255895173,0.6349187612699823,-0.4037277774424545,0.5902840010046558
3.4636209958791735,-9.31656575024128,0.2694725878536701,-0.049222242861540436,0.4360745319786446,-0.6129691697238139,0.6570273741141871
