3.9342999288439753,-8.957268966436386,0.2790538354218006,0.6560517729346484,-0.671496230888975,-0.3412945662114516,-0.046977677738921086
3.9402880623936656,-8.868642134070397,0.2898327389359474,0.5901623871422754,-0.7502546788387042,-0.06443656134515202,-0.2909883214927646
3.9474739980697633,-8.851875243186951,0.2898327389359474,0.433034534253655,-0.7168838299505003,0.22849100565977823,-0.4963371100691599
3.9319046169519427,-8.874630852341653,0.27785617947578434,0.2150412228650408,-0.5778021884365575,0.48100457194190266,-0.6233269649851672
3.9402880623936656,-8.897385876774788,0.23114759758114817,-0.03463476544354965,-0.35396725149857683,0.6630117336603173,-0.6587283650473494
3.936695240736008,-8.953675852417947,0.2251593178510666,-0.27922427825316176,-0.07818917978024048,0.747747604659205,-0.5973221696251659
3.9390905526280404,-8.977628971338273,0.22156635001301767,-0.48282895316019564,0.2091101145662826,0.7227415565790997,-0.44810021688225693
3.9354974386096004,-8.970443328022958,0.20000854298472406,-0.615495016476878,0.46574147806674465,0.5915822294137607,-0.2329833173044296
3.9259161910414697,-9.002779600024224,0.1856366716325283,-0.6577104948050289,0.6539344213366215,0.37352523332271104,0.016296554411178124
3.9019630721211436,-9.044697704315187,0.20839213460683823,-0.600892486466198,0.7469474105543182,0.09366811102377602,0.2687453637775104
3.9127421218156817,-9.090208922624589,0.24312415704131127,-0.45612396863545385,0.7267459483360583,-0.19391576551929446,0.475592186328195
3.9342999288439753,-9.123743289113046,0.2694725878536701,-0.24449049048998517,0.5997971919988232,-0.4529497942333245,0.6126207737534554
3.9594505575299266,-9.093801451921463,0.26468196406960487,0.003033044769969089,0.38478720466747024,-0.6454644249921051,0.6597766923992002
3.9857989883422853,-9.038709570765496,0.21797338217496873,0.25010326885902523,0.11339207166406522,-0.7432099097994748,0.6101062390810458
4.012147419154644,-9.03032583296299,0.17845073595643043,0.4605613968113867,-0.17468047222432534,-0.7318931851696756,0.4708527348256757
3.995380235910416,-9.060267085433006,0.19881088703870775,0.6034134104405955,-0.4371322745094843,-0.6131256297980859,0.26245874488634385
3.969031805098057,-9.036313966512681,0.23593822136521342,0.6577699003480963,-0.6391081634194195,-0.3984863946496309,0.009386528956479243
3.9474739980697633,-8.996791466474534,0.23593822136521342,0.6131638945511972,-0.7415992691345196,-0.12937379011999683,-0.23942218958973205
3.9534624239802363,-8.989605823159218,0.22635697379708292,0.47853720418375384,-0.7352091705408806,0.15872675256802027,-0.4530733249528127
3.9522646218538284,-8.988407728672028,0.2251593178510666,0.2736612900411331,-0.6208961109861324,0.42350742902164895,-0.6001991130106676
3.97502023100853,-8.988407728672028,0.24072884514927864,0.028543910057341592,-0.4154236025307693,0.626123012114497,-0.6592256437363956
3.992984924018383,-9.017151471376419,0.2562983724474907,-0.22077017922067438,-0.1489906900301221,0.7367984618988435,-0.6214421363206054
3.998973349928856,-8.997988976240158,0.2347405654191971,-0.43772872675686586,0.1393281798123615,0.7393072741074534,-0.4923474124373904
4.014542731046677,-8.960862080454827,0.19761323109269144,-0.5930761765691404,0.41300943986767197,0.6294900850084987,-0.2853525613032323
3.9822061666846276,-8.964454609751701,0.1928226073086262,-0.656758083108376,0.6192185406373186,0.42847485205924307,-0.04057733795618742
3.9702296072244647,-8.922537090182304,0.1940202632546425,-0.6239415829631388,0.7344867978783752,0.16448901136036392,0.21016519677033424
3.986996790468693,-8.946490209102631,0.20000854298472406,-0.4994736603108889,0.7418420897862786,-0.12367300667593918,0.4300015859237067
3.995380235910416,-9.009965828061103,0.22994994163513185,-0.30167207184403483,0.64021712674335,-0.39365837059587294,0.5866422069316349
3.9905896121263504,-9.050685837864876,0.2898327389359474,-0.05952811379731901,0.44449685058649885,-0.6058536312956432,0.6571303759013883
3.9774155429005624,-9.03032583296299,0.26827493190765384,0.19721267639863185,0.1767281847119469,-0.7306976141415708,0.6292497959347503
3.9702296072244647,-9.055476461648942,0.21318275839090348,0.418866948159584,-0.1113520301820939,-0.7440405834757052,0.5084828564021946
3.9702296072244647,-9.085418298840523,0.18803198352456094,0.5790206126578499,-0.3830909386423664,-0.6480696125947975,0.31302114957086824
3.994182726144791,-8.989605823159218,0.12934684216976167,0.6541174560493103,-0.5985186017931219,-0.456938022069578,0.07150860777785167
3.9857989883422853,-8.941699585318565,0.058685141354799276,0.633099440620675,-0.7260425731111304,-0.19863288225663175,-0.18053326120795674
4.004961483478547,-8.93331584751606,-0.05509217351675034,0.5189831772049132,-0.7469120505303404,0.08890320967196803,-0.40604811274143165
4.010949909389019,-8.833910257816315,-0.21318275839090348,0.3284307420725893,-0.6580560208312939,0.3634559214637633,-0.5718350411283474
4.06604208290577,-8.986012709140779,-0.2527054046094418,0.08329196229555853,-0.46694588410461224,0.5891063181715563,-0.654200073544073
4.100773959159851,-8.957268966436386,-0.2670772759616375,-0.16900112090697653,-0.21037546243152958,0.7218533310287969,-0.6372664704984374
4.084006775915623,-9.05308144211769,-0.35690147191286087,-0.3964130335077339,0.07727720691131491,0.7480758527977808,-0.5265619228714276
4.076820840239525,-9.393215730786324,-0.5113990889489651,-0.56534439480268,0.3536201427137267,0.6639986652451659,-0.33829614612784625
4.173831118047238,-9.578852548599244,-0.6635013940930367,-0.6510638012026029,0.5777673137198481,0.4819381843028966,-0.10018205663388757
4.195388925075531,-9.667478796243667,-0.36288975164294246,-0.6411830192757412,0.7164632088593311,0.22852996012783838,0.1527706237056183
3.986996790468693,-9.654304434657098,0.33055304110050204,-0.5372881376808006,0.7490195152355245,-0.05883278789173457,0.38318393229978115
3.680396868288517,-9.589631305932999,1.0048333387076855,-0.34979880383033035,0.6675748329587691,-0.3435004703290063,0.5603499496945574
3.553445338010788,-9.451900725960732,1.3114332608878614,-0.11526403161199701,0.4884813269805455,-0.5701491996026823,0.6504076309517707
3.6827921801805497,-9.188416417837143,1.0383677051961422,0.13560945098568022,0.23817007775719254,-0.7128402153957903,0.6455570603587094
4.045681785643101,-9.02673271894455,0.2634843081235886,0.36677641229689883,-0.046642862963833825,-0.7515169495443075,0.5463714682015992
4.342700460255147,-8.856665866971017,-0.22875228568911554,0.5446960952411013,-0.3248287455063143,-0.680706027463516,0.36664936123867725
4.366653579175472,-8.685400920510293,-0.23114759758114817,0.6428348963696096,-0.5557743859941585,-0.510276790115303,0.13227140791536318
4.264852969944477,-8.580007197260857,-0.038324990272521973,0.6450018299158681,-0.7076949490859878,-0.25827527096071273,-0.12819665695147045
4.342700460255147,-8.889002723693848,-0.03353436648845673,0.5506836858932185,-0.7507689713788259,0.026674477804753186,-0.363843238139288
4.457675431072712,-9.427947607040405,0.11976559460163116,0.3754254339510567,-0.6829153404817517,0.3077960955956357,-0.5458424175652128
4.467256678640843,-9.841138762235643,0.4874459700286389,0.1451119930468931,-0.5138691070942367,0.5435468557931026,-0.6476402286806792
4.152273311018944,-9.346507002711297,0.9365669497847557,-0.10633841076525877,-0.26864149963312917,0.6988181418966513,-0.6543524215794531
3.6983615612983707,-8.863851510286331,1.0515419206023218,-0.34151455689828003,0.016315169598910568,0.750699458963908,-0.5652892577953574
3.361820386648178,-8.554856568574905,1.0263911457359791,-0.5260456813114617,0.2986971743139316,0.692028345342165,-0.3938942859111034
3.7115359228849414,-8.593181558847428,0.47427175462245946,-0.6348500075618815,0.5418400614121506,0.5272402021027434,-0.15935050999044342
4.345095772147179,-8.730912138819695,0.019162495136260987,-0.6474166329291585,0.6992506783030922,0.288166276406994,0.09412964167075523
4.6109753921628,-8.643482816219331,0.05509217351675034,-0.5647023443521949,0.7544033692126476,0.006570714669374574,0.3345798029057859
4.357072331607342,-8.526112825870515,0.8120107313990593,-0.3986597080269728,0.6985468301884129,-0.27651032938007103,0.5259703422966869
3.733093729913235,-8.226698547005654,1.9701440311968328,-0.1741244496223705,0.5395939354183691,-0.5189914111223364,0.6396616106072566
3.2408569899201396,-8.032678576111794,2.651610264480114,0.07524145376176775,0.30154153630954955,-0.684870420212813,0.6590629203903201
3.227682920694351,-8.661447801589967,2.6635868239402773,0.31261264661609184,0.019604246676939812,-0.750205084793878,0.5823069100030691
3.6863850018382074,-9.175242056250573,2.329440815001726,0.5078364098735109,-0.2716438219238297,-0.7035769936742086,0.4162826309008831
4.198981746733189,-9.431540721058846,1.8168440701067448,0.6240941429659708,-0.5164324163986398,-0.5538131722062453,0.19260070170974983
4.230120801329613,-9.159672675132752,1.628812086582184,0.6495239767027905,-0.6858261857842057,-0.322837980210777,-0.059470035432199336
3.9857989883422853,-8.75127214372158,1.7042644111812115,0.5800470016223563,-0.7548615805540083,-0.04460808932281749,-0.3028854378793836
3.8193249580264093,-8.503357216715813,1.7845073595643044,0.4253660265434452,-0.7137922851038657,0.23998255231594304,-0.5019688155381452
3.674408442378044,-8.278197898864747,1.909063577950001,0.20785013364880406,-0.5687754297502087,0.48965550702627775,-0.6273199477885895
3.5714100310206414,-8.069806056618692,2.15937367066741,-0.040547103525318665,-0.340712107288645,0.6679729360904061,-0.6603660719581225
3.29954227745533,-8.223106017708778,2.489926857948303,-0.28844442494115846,-0.05575097634052701,0.749294209205386,-0.5935063861566428
2.9677914342284204,-8.72612151503563,2.777364284992218,-0.4877802556562998,0.23127414878709796,0.7177230303600984,-0.4398367219609969
2.994139865040779,-8.709354039430618,2.676761185526848,-0.6153676449933435,0.4844708097487594,0.5810122433350943,-0.22143953822984902
3.547456912100315,-8.764446505308152,2.3749517409503462,-0.6526533183854556,0.6667129212089542,0.35868998365067545,0.029648310612146532
3.9007655623555184,-9.160870184898377,2.063561194986105,-0.5938808420891551,0.7509644156633032,0.0831392868302884,0.2764884279536858
3.899567760229111,-9.23153203189373,1.8216346938908101,-0.44717654393452577,0.7246099083243628,-0.20510494620773978,0.48260292203223537
3.8971724483370784,-9.256682660579681,1.8156464141607285,-0.22844081871053903,0.5867861446127274,-0.4687862345752773,0.6194645099681846
3.7378843536973,-8.830317143797874,1.7413917455077172,0.019802575693260063,0.3642782525206774,-0.6564379255656647,0.6603017966168508
3.584584392607212,-8.35844099342823,1.933016696870327,0.2650129572791947,0.0879616464481939,-0.7468174909409081,0.6035681539420261
3.1785788807272914,-8.529705939888954,2.5486118531227113,0.470649477256591,-0.20116415467556303,-0.7264802996949442,0.4585285450077321
2.5354377838969233,-9.042302684783936,3.166602321267128,0.60681463881402,-0.46021540181383236,-0.5991866149892874,0.24688697509593882
2.358184557706118,-9.232729541659356,3.293553851544857,0.6541250318022932,-0.6514665454482415,-0.3843324464774322,-0.0005945721613852175
2.608494650423527,-9.324949488043785,3.275589158535004,0.6061960449622055,-0.7472116339869532,-0.11320230347743529,-0.24776272438389524
2.8216774088144305,-9.242310789227487,2.989349241256714,0.46537563504626944,-0.732037727781258,0.18151903269426375,-0.4632462889002707
3.0168954741954805,-8.986012709140779,2.734248670935631,0.258335172744984,-0.6087739458547008,0.4430639141154568,-0.6052698483982233
3.1713929450511933,-8.820735896229744,2.5737627741694453,0.012841005929593731,-0.3965064920282378,0.6397577583965266,-0.6582763256548335
3.1390563806891443,-8.812352743148804,2.643226819038391,-0.2348372579333184,-0.12628782968913832,0.742739301174951,-0.6141996229638315
3.172590747177601,-9.085418298840523,2.856409577429295,-0.4480098094568449,0.16235658188106664,0.7367072547941245,-0.4797811706226528
3.057615776360035,-9.327344507575036,2.881560206115246,-0.5952811351822206,0.4270291407821737,0.6225843545313839,-0.2750912657860031
3.0408485931158067,-9.259078264832498,2.838444592058659,-0.6554930884833495,0.6288364605083823,0.41710716986597096,-0.030251045143094717
3.042046102881432,-9.084220204353333,2.638436195254326,-0.617723930950645,0.73970483434049,0.1438161109453863,0.22487958870634656
3.2204969850182534,-8.667435935139656,2.4839384320378306,-0.4889269259865043,0.7384009492235423,-0.14472294110451234,0.4413272816733845
3.319902282357216,-8.261431007981301,2.347405654191971,-0.2875750304712276,0.62902187028917,-0.41223134756833285,0.5930408119424695
3.342657891511917,-8.000341719388961,2.246802554726601,-0.04326386010618137,0.42743551789714057,-0.619337798014073,0.6571512827346496
3.2779844704270364,-8.333290364742279,2.189315069317818,0.20757510960505318,0.16278676455268395,-0.7356036199957131,0.62393938600486
3.2408569899201396,-8.866247114539147,2.3917189241945747,0.4274126096260506,-0.1263145536824466,-0.7433642924172742,0.49877111325699175
3.064801712036133,-9.239915769696236,2.556995590925217,0.5867378750841018,-0.40279171139478454,-0.6373921675286389,0.2953450997504393
2.9534195628762245,-9.213567046523094,2.6120877644419673,0.6556161126540735,-0.6125005558845134,-0.43835810365174294,0.05341118639733788
2.970186746120453,-8.92732771396637,2.4887290558218957,0.6289951104908943,-0.7316386582956955,-0.17495904583765567,-0.19611057326263479
3.0252789196372034,-8.857863376736642,2.23722130715847,0.5102131453617198,-0.7435046561018632,0.11402010366777647,-0.4169925522291017
3.3019375893473626,-8.851875243186951,2.194105693101883,0.3162683564463763,-0.6464425958069354,0.38652691464095906,-0.576786998202317
3.415714758038521,-8.900978990793229,2.285127544999123,0.07571721950838625,-0.4544736522268223,0.6024292213886107,-0.6517665497082867
3.3917616391181946,-8.866247114539147,2.359382213652134,-0.17614951494840114,-0.1956910762913173,0.7299187086029313,-0.6307892119201293
3.230078232586384,-8.76085339128971,2.362975181490183,-0.40696303125402855,0.09884991756479725,0.7494010526113886,-0.512842907072827
3.026476721763611,-8.983617104887962,2.473159674704075,-0.5718234905104005,0.3723987424061137,0.6567511705145349,-0.3209594559794667
2.894734567701817,-9.278240759968758,2.7126908639073375,-0.6523217573478177,0.5911800278559513,0.4671812962033511,-0.08200082946317239
2.942640805542469,-9.381238878965378,2.8863508298993112,-0.6369813019673978,0.7226042077795073,0.20880393471073655,0.16881616241516662
3.014500162303448,-9.400401374101639,2.9450361174345017,-0.5283262173007458,0.7473993953188378,-0.08008649259939486,0.3947805791738593
2.931861755847931,-9.344111983180047,2.881560206115246,-0.3421541082169242,0.6623930791285997,-0.3569869323724739,0.5627844214866867
3.0372554790973667,-9.239915769696236,2.719876799583435,-0.10553196936876577,0.4803556854163779,-0.5814699000255071,0.648085005453481
3.2145085591077804,-9.243508883714677,2.6839471212029458,0.15270490912448792,0.22118321014876033,-0.7228727921626513,0.636564313034075
3.15342825204134,-9.2219507843256,2.7749689731001856,0.3824125235807796,-0.06524250665742004,-0.7536206256252247,0.5306223042483996
3.0935454547405246,-9.262671378850937,2.8324564585089687,0.5558073406536376,-0.3419479657532817,-0.673685477252256,0.34683954003562484
3.0755804693698883,-9.314170145988465,2.818084587156773,0.6476405750694626,-0.5683907771431268,-0.4948799229360553,0.11219390294099015
3.129475133121014,-9.283031383752823,2.758201789855957,0.644490137921992,-0.7113645243716726,-0.24352369284001918,-0.13888551620783085
3.2169038709998135,-9.20877642273903,2.6683774477243425,0.5468174339372496,-0.7499748633312858,0.04345331436578771,-0.36964876272500746
3.219299182891846,-9.132126442193986,2.652808066606522,0.3638403212130847,-0.6756542500459033,0.33023849987168313,-0.549594476188551
3.19893917798996,-8.941699585318565,2.6216690120100976,0.13085940550232875,-0.5027557042312922,0.5615541368959814,-0.6440259848713279
3.294751653671265,-8.764446505308152,2.4767524963617324,-0.12158853703209159,-0.2562212378017928,0.7106347167344238,-0.6438673810137444
3.275589158535004,-8.868642134070397,2.5593909028172495,-0.356146628726539,0.028024341525626714,0.7554489866301685,-0.5492458864008245
3.238461678028107,-8.981222085356713,2.5773555958271026,-0.5383411584339001,0.30818232541588986,0.6894119899128353,-0.37406357695146664
3.212113247215748,-9.12853391289711,2.5833440217375756,-0.6415538069316614,0.5431185857083141,0.5221614141914448,-0.1441470506090345
3.147439826130867,-9.1345220464468,2.6072971406579017,-0.6507269094061973,0.6983564442384647,0.278285143621479,0.1068182802934017
3.1582188758254053,-8.965652704238892,2.511484664976597,-0.5611872124076487,0.7511623564806407,-0.013307683281504277,0.3473426728783301
3.2839726039767267,-8.95846647620201,2.4647759369015696,-0.39029568501953077,0.6911901843703193,-0.2965310221130928,0.5310317883232827
3.3366694656014446,-8.995593956708909,2.4971127936244013,-0.16211529397272054,0.5297897563035102,-0.536213647021444,0.6368016726767981
3.275589158535004,-9.019547075629236,2.576158086061478,0.08981096756213654,0.29061266817682074,-0.6971938023094655,0.6491525777673319
3.1450445142388346,-9.045895214080812,2.633645571470261,0.32849935554085613,0.008836502439817729,-0.7558657128101125,0.566283598413316
3.032464855313301,-8.994396446943284,2.6731680715084076,0.5189591085345423,-0.2742295581820075,-0.7037501978921007,0.40026897463476147
3.0983360785245897,-9.012360847592355,2.639633705019951,0.6332008962640694,-0.5172208648869231,-0.5484700310337866,0.17527072474831537
3.1498351380228997,-8.921338995695114,2.638436195254326,0.6536244811803612,-0.6872276132690665,-0.3062928943974673,-0.08171846794836522
3.237264168262482,-8.771632148623468,2.561786214709282,0.576283399619391,-0.7512087282344481,-0.02394760045517144,-0.3209507787495458
3.255228861272335,-8.758457787036896,2.528251848220825,0.4141105386383534,-0.704717810318494,0.26197671719112475,-0.51308232210662
3.134265756905079,-8.796782777309419,2.633645571470261,0.19115733340053856,-0.5544955346095127,0.5093634323042712,-0.6297161819554252
3.0564179742336273,-8.8542702627182,2.5833440217375756,-0.059778494284199665,-0.32275785733094403,0.681815478351672,-0.6537442547604778
3.0779757812619213,-8.945292114615441,2.580948709845543,-0.30176516857404073,-0.04356741086528917,0.7539967767134738,-0.5818320414446664
3.1450445142388346,-9.045895214080812,2.517472798526287,-0.49936684910974205,0.24203552278985896,0.7153468124124044,-0.4246533806405646
3.2097179353237153,-9.120150175094604,2.5102868628501893,-0.625628114808357,0.49729424799434774,0.5669870386208893,-0.19953343306070723
3.1630094996094704,-9.172847036719324,2.511484664976597,-0.6563802985943215,0.6728453665290474,0.33756339696117216,0.049949668564019875
3.142649202346802,-9.220753274559975,2.556995590925217,-0.5909947714958994,0.7496626924958214,0.05865611098251073,0.2920453529656528
3.091150142848492,-9.000384580492973,2.713888373672962,-0.43892879376891075,0.7165401754730213,-0.22886647848677183,0.4914588751449352
2.9821633055806163,-8.53449656367302,2.8132939633727077,-0.2222608964159087,0.5783815488644557,-0.4826817301893068,0.6189452521822969
2.9606054985523227,-8.371615355014802,2.6731680715084076,0.02737455458757328,0.35562968464671413,-0.6658390799848654,0.6553140321434593
3.0923476526141167,-8.759655881524086,2.7378414925932884,0.27857758902195645,0.07372785921344603,-0.7522383145198056,0.592533752489188
3.2540313515067103,-9.174044546484948,2.7941314682364466,0.4826232427881642,-0.2130875707757638,-0.7248439691132699,0.4430233776468705
3.331878841817379,-9.393215730786324,2.753411166071892,0.6157133012405777,-0.4686357401183085,-0.590743246495701,0.22869213033883445
3.222892296910286,-9.42675009727478,2.632447769343853,0.6585559735821384,-0.655153978933323,-0.36976268274673746,-0.018784355060857853
3.091150142848492,-9.450703216195107,2.5486118531227113,0.6051042021970892,-0.745364360823059,-0.09472171871540236,-0.26326539860349546
3.0755804693698883,-9.21955576479435,2.6420290169119838,0.46321934482628596,-0.7263345125635654,0.19392392048105173,-0.4693181516871182
3.1773813709616663,-8.790794643759728,2.676761185526848,0.2533794343822634,-0.6011079550622381,0.45398420101734566,-0.6069319845086933
3.2456476137042047,-8.473415964245797,2.604901828765869,-0.00020513776406184118,-0.38217007585546797,0.6512746124834031,-0.6555817036599761
3.3067282131314277,-8.340476008057594,2.5102868628501893,-0.2485530537233392,-0.11143799924054971,0.7477977311312171,-0.6054762630566703
3.365413208305836,-8.448265335559846,2.4959149914979935,-0.4604499690566195,0.17582725188881848,0.7348088705852318,-0.46596837574908484
3.3402625796198846,-8.730912138819695,2.5150774866342545,-0.6044210918130145,0.4375799091875462,0.613823665118541,-0.2577197605683809
3.2540313515067103,-9.091406432390214,2.614483076334,-0.6593133784722893,0.6350582220378853,0.40232759577074245,-0.011808017228553045
3.19893917798996,-9.203985798954964,2.651610264480114,-0.6174586326479844,0.7389148963505653,0.13153584112279634,0.2354738529430245
3.185764816403389,-9.265066398382187,2.5977158930897715,-0.48534477494931805,0.733877968024555,-0.15849453451794038,0.44804359163533125
3.212113247215748,-9.20877642273903,2.542623719573021,-0.2767279757134398,0.6171097188345079,-0.43074801766355764,0.5975394277003416
3.242054792046547,-8.978826481103898,2.5390306055545806,-0.03175471700457505,0.41130292122605194,-0.6328043296555447,0.6552711082506785
3.212113247215748,-8.821933990716934,2.6228665217757228,0.2179686729046683,0.14523185815617767,-0.7420918358753271,0.6170065414044394
3.10432421207428,-8.71294715344906,2.6983189925551416,0.43577683220592217,-0.1421557374958864,-0.7427718085707098,0.48803723136884647
3.1450445142388346,-8.748876539468766,2.719876799583435,0.5895034589568502,-0.4090243521574382,-0.6346898587474825,0.28697305522156186
3.1893579304218296,-8.902176500558854,2.7402368044853214,0.6563090211178846,-0.616132747959221,-0.43329528800670014,0.043521248634363366
3.191753242313862,-9.091406432390214,2.7498180520534516,0.6244338075870322,-0.7342512514772124,-0.16127750073679883,-0.21200728148485934
3.1821719947457314,-9.182428284287454,2.7246674233675003,0.5005504423473224,-0.7401904366951414,0.12868293951518167,-0.43012564811771886
3.2013344898819924,-9.20039326965809,2.6671799379587173,0.30342400212535403,-0.6372372537142508,0.3994276541826227,-0.5850812819490296
3.2336710542440414,-9.1991951751709,2.601308714747429,0.06196444015395016,-0.4407769374961295,0.6112425830930581,-0.6544147034882903
3.2324735444784167,-9.123743289113046,2.5917274671792985,-0.18860655111357122,-0.17975888207524182,0.7333079801394538,-0.6279918148000797
3.2444501039385796,-8.978826481103898,2.6060993385314943,-0.41159674863572115,0.10760623305075773,0.7479742230859792,-0.509454194918498
3.3175069704651836,-8.678215277194978,2.5354377838969233,-0.5743011757947099,0.37932633862950754,0.6530952369130536,-0.31584220716083566
3.3498438271880153,-8.686598430275918,2.4875315460562706,-0.6532340755874486,0.5997473698597243,0.4568964319932332,-0.06952686725005822
3.2875657179951667,-8.853072752952576,2.5534024769067765,-0.6332189979332715,0.7261103325779954,0.19704352140497192,0.18158010973723068
3.227682920694351,-8.956071456670761,2.6456221309304238,-0.5202495481169873,0.7457417882175282,-0.091774203331804,0.40593975980803665
3.242054792046547,-9.035116456747055,2.6408315071463586,-0.3311013629878241,0.6557457547086288,-0.36700472795546857,0.5706811038290548
3.2145085591077804,-9.050685837864876,2.5965180909633636,-0.09353150661680859,0.4694114147016628,-0.5882815866042385,0.6517895027385554
3.3103210347890855,-9.012360847592355,2.528251848220825,0.1577605882692579,0.2141996147276481,-0.7231677676844868,0.6373841083849683
3.4001453769207,-8.890200233459472,2.5019034174084664,0.38597691172502074,-0.07243250331699691,-0.751944603744806,0.5294852868376189
3.3258907082676887,-8.826724614501,2.566576838493347,0.5607075171399268,-0.35463849192155633,-0.66725874854215,0.3385326908355334
3.2145085591077804,-8.770434638857841,2.6025065168738366,0.6480914286523991,-0.5780357061949822,-0.48534678905094264,0.10144317043990779
3.1390563806891443,-8.875828362107278,2.6683774477243425,0.6401944072269842,-0.7166644236067188,-0.2321624872888862,-0.15047858448157184
3.1366610687971117,-9.003977694511414,2.689935254752636,0.53831874225751,-0.7500340189469022,0.05517642087399612,-0.38028603016175316
3.173788256943226,-9.072243937253953,2.6480174428224563,0.3575692599612279,-0.6731629606536531,0.3342892644227148,-0.5542982414066532
3.231275742352009,-9.099790170192719,2.5917274671792985,0.12442026964278859,-0.4974242719605451,0.5642297237032953,-0.6470962131369961
3.262414796948433,-8.953675852417947,2.5713674622774128,-0.12703195300750428,-0.24875132908885067,0.7113009143614819,-0.6450090452235141
3.3594250747561456,-8.683005900979042,2.462380625009537,-0.3651221768558123,0.04329601020329638,0.7538063087003308,-0.5445982927187071
3.39655226290226,-8.759655881524086,2.4132767312228682,-0.5436608751326701,0.3225032067397881,0.683316464161891,-0.3653808209222591
3.3642156985402107,-8.860258980989457,2.470764362812042,-0.6422438014488123,0.5544303646140128,0.5124412170227244,-0.13241551793812054
3.2791819801926616,-9.018349565863609,2.595320581197739,-0.6464598181432496,0.7048901322304951,0.2662040592297799,0.11981236939423096
3.1701954352855686,-9.147696408033372,2.680354007184506,-0.5558913329344686,0.7517249556123696,-0.01920485861877682,0.3542959080815831
3.123486707210541,-9.184823303818703,2.694725878536701,-0.3839010630247893,0.6881267489292545,-0.30170703201254795,0.5367256450465833
3.165404811501503,-9.114162041544915,2.689935254752636,-0.149652303896491,0.5185670909188884,-0.5447192847502623,0.6418514321675666
3.227682920694351,-9.01475645184517,2.67556338340044,0.10164159636925454,0.2757154432396203,-0.7013712594761109,0.6494061415074415
3.2791819801926616,-8.850677733421326,2.651610264480114,0.33810670000654475,-0.007534049633386642,-0.755170065529368,0.5615561144134894
3.3414600893855098,-8.799178381562234,2.608494650423527,0.5249955580515123,-0.28970646451910087,-0.6982020041773328,0.3911058549865748
3.3306813320517543,-8.867444624304772,2.6120877644419673,0.6346963508214057,-0.5294729357908938,-0.5387297157403679,0.16306209215285308
3.307925722897053,-8.978826481103898,2.608494650423527,0.6510411323909933,-0.691490452561148,-0.30014698881382074,-0.08887172248712358
3.256426663398743,-9.12134768486023,2.632447769343853,0.5717911167318341,-0.7519230303207136,-0.01745911141975788,-0.3276611889258623
3.210915737450123,-9.132126442193986,2.656400888264179,0.4038754422367685,-0.6994115742774751,0.27418211229955364,-0.5220462108086922
3.1905554401874543,-9.038709570765496,2.6552033784985545,0.1798316591959596,-0.5441061420568196,0.5184828197595304,-0.6346531699606318
3.1905554401874543,-8.849479638934136,2.6635868239402773,-0.07068203535607778,-0.3090103928482524,0.6866734765711686,-0.654214157263014
3.275589158535004,-8.672226558923722,2.5713674622774128,-0.31096493939530634,-0.02864959253413749,0.7541799482639268,-0.5776613306697292
3.365413208305836,-8.770434638857841,2.528251848220825,-0.5056222742650913,0.2560314867244594,0.7110366913286742,-0.4161980504003251
3.3630178964138033,-8.873432757854463,2.493519679605961,-0.6259420580872217,0.503261690739388,0.5634331167237602,-0.19356480447285748
3.3163094606995585,-9.027930813431741,2.505496239066124,-0.6542975853618322,0.6765403100909422,0.33302813519294056,0.05727250458675757
3.2288804304599763,-9.112963947057725,2.5522049671411517,-0.5839286366055719,0.7508906022484977,0.04679227555843201,0.3049608724982764
3.192950752079487,-9.080627675056459,2.5737627741694453,-0.4286384293396628,0.7119409456730799,-0.23994994213336793,0.5018298636366124
3.2013344898819924,-8.962059590220452,2.5929252693057063,-0.21051408563989746,0.5685661492796282,-0.4914122869743907,0.6252442065714263
3.2336710542440414,-8.848282129168512,2.5881346455216407,0.03857870387154736,0.3418620515450485,-0.6707649804753087,0.6570512630601671
3.2983444753289226,-8.747679029703141,2.5641815266013146,0.28216692457043907,0.06507485279592713,-0.7517892029483946,0.592418842156684
3.3666110104322433,-8.72612151503563,2.542623719573021,0.4844404806420038,-0.22138081716729965,-0.7225652410752444,0.44068971725643513
3.376192258000374,-8.820735896229744,2.5019034174084664,0.6175322321818733,-0.4808565512040431,-0.5828996697732792,0.2183091714949889
3.3354719558358195,-8.904572104811669,2.5150774866342545,0.6557557467166722,-0.6631256224945508,-0.3595200713627262,-0.03152979109690735
3.268403222858906,-8.990803332924843,2.5785533979535105,0.597615732564464,-0.7479314975822922,-0.08325804961176354,-0.2766261164290056
3.2288804304599763,-9.000384580492973,2.613285274207592,0.45177238399013064,-0.722795473961322,0.2051546687202732,-0.48101972702497
3.2456476137042047,-8.94888522863388,2.6060993385314943,0.23960152598007173,-0.5914852700536247,0.46334088486038116,-0.6148589338006
3.2588219752907754,-8.91056023836136,2.6252618336677553,-0.007765852954991285,-0.37332249210703816,0.6534022184349464,-0.6585100981451708
3.3175069704651836,-8.824329010248185,2.5869368433952333,-0.2540750176827488,-0.10041905081131015,0.747490516805246,-0.6054913929280022
3.3666110104322433,-8.861456490755081,2.570169660151005,-0.4673810654932455,0.19401709958302293,0.7301430786096561,-0.45913330248001355
3.3606225845217708,-8.91056023836136,2.570169660151005,-0.6064196668809315,0.4531482639403534,0.6045492135714192,-0.24785497146121993
3.3163094606995585,-8.957268966436386,2.5977158930897715,-0.6563182570688554,0.645783672390101,0.3901406584526771,-0.0002460377327397496
3.280379782319069,-8.977628971338273,2.62406432390213,-0.6098459960590978,0.7435640098567491,0.11842589828422738,0.24733728176725198
3.2648101088404657,-8.977628971338273,2.643226819038391,-0.47390238076944813,0.7321435309854603,-0.17059043275277502,0.458564376931323
3.2456476137042047,-8.93571086704731,2.6599940022826196,-0.2684164418148023,0.6132522391897401,-0.43452228295497086,0.6025484963949796
3.269600732624531,-8.859060886502267,2.656400888264179,-0.02343846101484456,0.4043757300463408,-0.6346717447044549,0.658120569476861
3.3642156985402107,-8.830317143797874,2.62047120988369,0.23080816683330457,0.12932990389612714,-0.7429580033962261,0.614829058577066
3.3917616391181946,-8.903374595046044,2.595320581197739,0.44510325479436047,-0.15893259533811405,-0.7383429952694096,0.48111655973075224
3.3594250747561456,-9.012360847592355,2.614483076334,0.5939366355969807,-0.42392588622044086,-0.6252331279288514,0.2767844858879514
3.2959491634368896,-9.075837051272392,2.6300524574518205,0.6554789596462087,-0.6266492656174858,-0.4202849303095124,0.03191565003126097
3.268403222858906,-9.083022694587708,2.6408315071463586,0.6208012591670927,-0.7373306622491855,-0.15363795787020393,-0.21758830167360343
3.255228861272335,-9.041104590296746,2.6683774477243425,0.4950723698287863,-0.739718742721222,0.135501609626956,-0.43515381658391544
3.2875657179951667,-8.930920243263245,2.661191512048245,0.29667237666000473,-0.6335519608820571,0.40467423562067917,-0.588927989498057
3.35104133695364,-8.81714336693287,2.627657145559788,0.04848735845970998,-0.42882815591061824,0.6184598292227582,-0.656706044136686
3.384575703442097,-8.82911963403225,2.614483076334,-0.20140959452433563,-0.16491340207193186,0.735593204477119,-0.6254121701547608
3.3737969461083415,-8.833910257816315,2.585739333629608,-0.421774098064168,0.12327529000029586,0.7448055898293786,-0.5021697386705137
3.3666110104322433,-8.84468901515007,2.555797788798809,-0.5801467193069622,0.39339642995371665,0.6446601034197342,-0.30509405768696474
3.3642156985402107,-8.911757748126984,2.5785533979535105,-0.6532524191349637,0.6057608689565538,0.44978832945535074,-0.06328906083268791
3.327088218033314,-8.960862080454827,2.5725649720430375,-0.6304190158872319,0.7291661500963548,0.18883369863118138,0.18769769370640213
3.323495396375656,-8.987210218906403,2.566576838493347,-0.5112343341197333,0.7445317376707166,-0.10668858699361054,0.4158479200663184
3.307925722897053,-9.00517520427704,2.5773555958271026,-0.31887000789642034,0.6488367913212906,-0.3797561525162715,0.5771637557210841
3.3438554012775423,-8.906967124342918,2.576158086061478,-0.0796368287955394,0.45792452469389366,-0.5970493681343132,0.6538311381340589
3.3534366488456726,-8.849479638934136,2.555797788798809,0.171349405230225,0.19982875765542196,-0.7267087059010308,0.6345095000934093
3.3342741537094116,-8.886607119441033,2.598913402855396,0.3972314070150768,-0.08768557911704979,-0.7496975196428884,0.5219885798913907
3.3103210347890855,-8.875828362107278,2.646819640696049,0.5647521689498546,-0.3623679626087377,-0.6625763861287755,0.33277166328544155
3.275589158535004,-8.883014005422593,2.6552033784985545,0.6492551676038363,-0.5838477711240728,-0.4781455777278188,0.09469062251615591
3.2899610298871997,-8.90816521883011,2.637238393127918,0.6368453035813908,-0.7216289785879486,-0.2168588384279494,-0.1632541600208729
3.3474485152959828,-8.934513357281686,2.6096924525499343,0.5300883221543794,-0.7489853737013886,0.07086362167672197,-0.3911593381472625
3.377389767765999,-8.953675852417947,2.5869368433952333,0.34545259942543877,-0.6663433173474965,0.34819435342290045,-0.5616135479321606
3.3737969461083415,-8.9369089615345,2.608494650423527,0.11011368180344622,-0.4857842985771478,0.5743622258950204,-0.6496126736760264
3.3546344509720805,-8.944094604849816,2.633645571470261,-0.14128844243002553,-0.23392653139136474,0.7160820861164161,-0.642294636354737
3.256426663398743,-8.965652704238892,2.6552033784985545,-0.371897816574708,0.052301496255602216,0.7526577113372805,-0.5407984255532896
3.219299182891846,-8.966850214004516,2.6683774477243425,-0.5479206937066199,0.3308555124316121,0.6787474625349388,-0.3600269787169481
3.2216944947838786,-8.977628971338273,2.643226819038391,-0.644665396833047,0.565488079681688,0.5001295028772725,-0.12041693492087824
3.2648101088404657,-8.970443328022958,2.613285274207592,-0.6435654203576878,0.7109007283765789,0.2511569575268879,0.13177210174888696
3.3222975942492488,-8.861456490755081,2.5773555958271026,-0.5479491881198361,0.7520208861646475,-0.034605223256793834,0.3647173597928923
3.3414600893855098,-8.797980871796609,2.518670600652695,-0.3717569526960392,0.6828282092782066,-0.3153011599354657,0.5441760590832918
3.374994455873966,-8.780015886425973,2.504298729300499,-0.14082948829504943,0.5133626448634606,-0.5497527109224524,0.6437373741820198
3.357029762864113,-8.831515238285066,2.531844669878483,0.11076111992655581,0.26846042035751716,-0.7034276065014385,0.6487299742001581
3.3306813320517543,-8.891397743225099,2.555797788798809,0.3511935674986153,-0.022845422227658264,-0.7536142263467617,0.5551637260111718
3.2875657179951667,-8.957268966436386,2.595320581197739,0.5340413301634778,-0.30430244547266355,-0.6904857561334589,0.3813519371045407
3.2875657179951667,-8.972838347554207,2.5833440217375756,0.6384936142838853,-0.5410202287729448,-0.5259500880151912,0.1516559312852101
3.293553851544857,-8.962059590220452,2.576158086061478,0.6492469893720637,-0.6983289108505872,-0.28417622985781366,-0.10029431412270126
3.319902282357216,-8.912955842614174,2.5725649720430375,0.5646564206610982,-0.7531431702871222,-0.0007196981258699341,-0.33754699478838135
3.346250713169575,-8.84468901515007,2.5713674622774128,0.3970326018580665,-0.6974164550833919,0.2828699231628575,-0.5253189581678624
3.4013428866863253,-8.837503371834755,2.561786214709282,0.1709509767009487,-0.5392869042526877,0.524914019218306,-0.6359329138318192
3.4169125601649286,-8.95846647620201,2.5534024769067765,-0.08636072300738737,-0.2955721922542829,0.6926668304543172,-0.6522204893101785
3.4073313125967983,-9.084220204353333,2.5342399817705155,-0.32505422984216675,-0.013177400517161032,0.7536273038244272,-0.5711497095400213
3.361820386648178,-9.120150175094604,2.5689721503853797,-0.5158366491376042,0.27119060985125276,0.7037845755086368,-0.40627020049607565
3.312716346681118,-9.093801451921463,2.537833095788956,-0.6308153911616942,0.5156518852829651,0.5505345502061776,-0.18189773090097675
3.2863679158687593,-9.054278951883317,2.5689721503853797,-0.6532946261711795,0.6843180094671739,0.3164543525338047,0.06907703017034039
3.3115188369154933,-8.962059590220452,2.604901828765869,-0.5799503950138567,0.7525259292274582,0.036035642199822415,0.30994144229978104
3.3678085201978685,-8.83510776758194,2.595320581197739,-0.42130387219603693,0.7104134625432511,-0.24969877533927023,0.5054367231454425
3.376192258000374,-8.809957138895989,2.604901828765869,-0.19471891402116442,0.5594801357791801,-0.5040954993483568,0.6284538564824463
3.409726624488831,-8.803969005346298,2.5869368433952333,0.05589148854484982,0.32870427242996264,-0.6779360271855722,0.655158290673615
3.452842238545418,-8.85546835720539,2.542623719573021,0.2983777790474696,0.04951189407611263,-0.7522577566273989,0.5853439509464571
3.433679743409157,-9.008768318295479,2.5270540460944177,0.49685792128641687,-0.23705313083822488,-0.715940787807226,0.42937956119115034
3.384575703442097,-9.1345220464468,2.5534024769067765,0.6221694395555928,-0.4887003934213215,-0.5742811602456354,0.21042400751780216
3.3402625796198846,-9.169253922700882,2.5486118531227113,0.6560695193176819,-0.6684150718032007,-0.3482067000526227,-0.039321389180073024
3.331878841817379,-9.145300803780556,2.589332155287266,0.5937651495114016,-0.7498044497021161,-0.07108279436514242,-0.2831668603100522
3.2983444753289226,-9.055476461648942,2.637238393127918,0.43980380088240423,-0.7191403972683691,0.2230320830078063,-0.48955734668706785
3.288763227760792,-8.898583971261978,2.689935254752636,0.2239659716417405,-0.5823055479226816,0.4774263479419109,-0.6187273831792852
3.3294835299253465,-8.799178381562234,2.6827493190765384,-0.02481589300208041,-0.36010530883252023,0.6617577129662743,-0.6571035438458621
3.3498438271880153,-8.84588710963726,2.6647846260666848,-0.2700152731248402,-0.08502590024802499,0.7490211825291389,-0.5990238865763046
3.370203832089901,-8.875828362107278,2.651610264480114,-0.4755469559356725,0.20257252449362917,0.7263622282001149,-0.45300924765920386
3.39056412935257,-8.962059590220452,2.6599940022826196,-0.6112480178306205,0.4604380439888288,0.5970485820854908,-0.24063594697298146
3.4025406888127327,-8.982419595122337,2.680354007184506,-0.6572291846972614,0.654127001357203,0.37416371679970994,0.0130068408244746
3.3797850796580318,-8.954873362183571,2.695923680663109,-0.6048822335415234,0.7462674296023349,0.10077743119725936,0.2589330346283064
3.376192258000374,-8.884212099909783,2.7067024379968645,-0.46401826802208496,0.7290694910777664,-0.1872601559740877,0.46698860597015796
3.380982881784439,-8.790794643759728,2.7162836855649948,-0.25518184983325815,0.605150940003357,-0.4478179528981131,0.606740178652175
3.3917616391181946,-8.692587148547172,2.719876799583435,-0.008881474873043551,0.3926823747586957,-0.6428130289267027,0.6576572677314748
3.3977500650286676,-8.625518415570259,2.710295552015305,0.23885306778291937,0.12267267736020396,-0.7437504549360535,0.6121567503690382
3.4217031839489938,-8.666238425374031,2.7031096163392068,0.4515501926363505,-0.16535768167591983,-0.735745798954432,0.47690395255412205
3.4109241342544556,-8.778818376660347,2.728260245025158,0.6005019589765231,-0.4349199863505399,-0.6159266278789924,0.2662262042095358
3.3869710153341295,-8.863851510286331,2.735446180701256,0.657143412542945,-0.6339141116193766,-0.40727740434622617,0.020989291322720382
3.3642156985402107,-8.918943976163865,2.735446180701256,0.6176853989114885,-0.7399726765380816,-0.13899863245890665,-0.2271223593642347
3.323495396375656,-8.934513357281686,2.7306555569171906,0.4879939185007282,-0.737672019876961,0.14957798793392693,-0.44195967250710455
3.3103210347890855,-8.875828362107278,2.7031096163392068,0.2869800047974727,-0.6274898088926456,0.41616654639532635,-0.5922030245141444
3.318704772591591,-8.809957138895989,2.7114930617809296,0.04400881766277244,-0.4256010963059372,0.6218746324161383,-0.6558954736453074
3.3163094606995585,-8.765644015073777,2.7294580471515655,-0.20551768841180523,-0.16143488417206128,0.7367436672814772,-0.6236265121391658
3.2899610298871997,-8.770434638857841,2.772573661208153,-0.42961491105634964,0.13325588700223231,0.7427449390857908,-0.4959877541227586
3.274391356408596,-8.784806510210037,2.7941314682364466,-0.5850661985023446,0.40172657315614,0.6385121336785631,-0.2976836558084578
3.3091235250234607,-8.821933990716934,2.7498180520534516,-0.6547828383779574,0.6114597383208661,0.44077265714232794,-0.05564070177464985
3.280379782319069,-8.889002723693848,2.735446180701256,-0.6284902763364215,0.7316504800136037,0.17841080034157386,0.19456909818342422
3.2336710542440414,-8.905769614577293,2.710295552015305,-0.5100514246574049,0.7446464828835997,-0.11011730034867101,0.4162010810869635
3.203729801774025,-8.934513357281686,2.7162836855649948,-0.3169712748821639,0.6484711820498865,-0.3825222285804071,0.576793794689469
3.2264851185679437,-8.890200233459472,2.67556338340044,-0.07145283321723608,0.45178943559553436,-0.6030461150365539,0.6535412623919149
3.3019375893473626,-8.861456490755081,2.6671799379587173,0.1790949611760931,0.19243902596693532,-0.7290998935475135,0.6319062916249809
3.3606225845217708,-8.843491505384446,2.6923305666446686,0.4034425789162679,-0.09506123218157574,-0.7483240729941038,0.5178885299280405
3.3630178964138033,-8.83271274805069,2.6971211904287338,0.5687292097621384,-0.3686462264575516,-0.658024475927599,0.3281018664411251
3.3486460250616075,-8.803969005346298,2.6983189925551416,0.6507251393989503,-0.5883816599379588,-0.4714129662283505,0.09018664244031414
3.3438554012775423,-8.776422772407532,2.6348430812358856,0.6372170942635192,-0.7221132997641548,-0.21575505687118607,-0.16111024957026304
3.3881688174605373,-8.796782777309419,2.5546002790331843,0.5300104058996056,-0.7501316718927274,0.07159684648387081,-0.3889284459063413
3.461225683987141,-8.827922124266625,2.5150774866342545,0.3395672653130244,-0.6649451088524144,0.3546211034257685,-0.5628374077352846
3.549852223992348,-8.894990857243538,2.4887290558218957,0.10291788642462467,-0.48280599316533607,0.5786002826822391,-0.6492518729257194
3.54266628831625,-8.932118337750435,2.5162752887606623,-0.14880734541399226,-0.22975662133440472,0.7175983718740503,-0.6404067813410097
3.5019459861516955,-8.922537090182304,2.556995590925217,-0.3786408930014122,0.05702704607111832,0.7512009200965878,-0.5376580398445981
3.457632862329483,-8.897385876774788,2.5653790363669398,-0.5528815972887781,0.33544295954405595,0.6745035633903635,-0.35615292115246805
3.446853812634945,-8.91654837191105,2.5354377838969233,-0.6460365542815169,0.5646809839227303,0.4987793777720945,-0.12243892043547326
3.476795357465744,-8.881816495656967,2.561786214709282,-0.6444128697344652,0.7110567628904862,0.249852893627096,0.12924343238424535
3.541468778550625,-8.805166515111924,2.5270540460944177,-0.5446212322688871,0.7528463048832209,-0.04267910892200075,0.36713573545382805
3.58817721426487,-8.906967124342918,2.493519679605961,-0.366019063169817,0.6817853320783505,-0.32242991905575863,0.5451951519014084
3.553445338010788,-9.000384580492973,2.504298729300499,-0.13354889857972663,0.510583989488379,-0.5548709551803994,0.6431072262566049
3.515120347738266,-9.021942095160485,2.5354377838969233,0.11860230556938894,0.2643659709071414,-0.7057889695096525,0.6464565391876337
3.5079344120621685,-8.987210218906403,2.5653790363669398,0.35336749694440384,-0.020711281651968033,-0.7529412283997078,0.554781003181903
3.5079344120621685,-8.960862080454827,2.5534024769067765,0.5362187108762243,-0.3027020440432202,-0.6893850668876397,0.3815615234672136
3.4935625407099726,-8.91774646639824,2.5833440217375756,0.640321976921154,-0.540175562987063,-0.5244225320394678,0.15224695370583938
3.485178802907467,-8.897385876774788,2.598913402855396,0.6493213200662665,-0.7008071567619442,-0.27591279250762824,-0.10546697715059172
3.4408656790852548,-8.912955842614174,2.6168783882260325,0.5616141553635171,-0.7535061830797725,0.00820979382249527,-0.3416878280554746
3.408528822362423,-8.918943976163865,2.6348430812358856,0.39143764965157773,-0.6954186557385866,0.29111999267700706,-0.5276538728652763
3.395354753136635,-8.904572104811669,2.62406432390213,0.16375607495304162,-0.5351213296248905,0.5312556703305761,-0.6360790227936096
3.395354753136635,-8.93930398106575,2.604901828765869,-0.08802329196043461,-0.29618403962375445,0.6933066996350263,-0.6510397337995506
3.3917616391181946,-8.922537090182304,2.6348430812358856,-0.3268944551239778,-0.013769788373345592,0.7534546691123913,-0.5703126070236286
3.403738198578358,-8.878223381638527,2.6779586952924728,-0.5214763899911586,0.2771304856510679,0.7004107263906898,-0.40085643684673267
3.3917616391181946,-8.842293995618821,2.676761185526848,-0.6341548783219239,0.5203830781274899,0.544269699958948,-0.17555493728648386
3.3546344509720805,-8.885409609675408,2.710295552015305,-0.6536313979998786,0.6871209237719146,0.30811730444796276,0.07546229762786563
3.3414600893855098,-8.922537090182304,2.752213363945484,-0.5771432651220176,0.7528244429494404,0.02666539014888913,0.3153568876532882
3.342657891511917,-8.93571086704731,2.7629924136400223,-0.41598490079193196,0.7078620825235413,-0.25865519170290413,0.5089060092430581
3.333076643943787,-8.884212099909783,2.7641899234056475,-0.193812299109409,0.5589402413600676,-0.5059400883425115,0.6277318108159295
3.3438554012775423,-8.808759629130364,2.728260245025158,0.056890003692710384,0.3279704767429777,-0.6789894736995631,0.6543486749967616
3.3666110104322433,-8.821933990716934,2.7174814876914026,0.3047127168051139,0.0419364279108736,-0.752835343329629,0.581919618216367
3.358227272629738,-8.8542702627182,2.718678997457028,0.5016845288737588,-0.2440131370070807,-0.7130987990118358,0.42457075417950724
3.365413208305836,-8.8542702627182,2.680354007184506,0.6249282245940855,-0.49416576913471816,-0.5686350957012561,0.20474138481997237
3.3737969461083415,-8.83271274805069,2.67556338340044,0.6563114358487914,-0.6717036793230373,-0.3406295690523741,-0.04517701899401719
3.3725991439819336,-8.83870088160038,2.638436195254326,0.591202618550364,-0.7505629682297164,-0.0625472070753141,-0.2884831735621131
3.414517248272896,-8.777620282173157,2.6683774477243425,0.4392056211806828,-0.7190736009317422,0.22471437086782892,-0.489423160763591
3.45164443641901,-8.803969005346298,2.689935254752636,0.22271899438423837,-0.5818644646942025,0.4789083803335801,-0.6184470531200466
3.4217031839489938,-8.857863376736642,2.699516502320767,-0.03258952212652264,-0.353005806067063,0.6660535512827901,-0.6562754686517634
3.3546344509720805,-8.91056023836136,2.6683774477243425,-0.2772394108466638,-0.07668449695862292,0.7499216761895265,-0.5957140896274727
3.3019375893473626,-8.941699585318565,2.676761185526848,-0.4810914618015847,0.21090115268148704,0.7236302974858576,-0.4476950990794558
3.3258907082676887,-8.92972273349762,2.681551809310913,-0.6143087289634422,0.4675066876403828,0.5910428898065042,-0.23394568801329538
3.3785875698924066,-8.930920243263245,2.6839471212029458,-0.6573543082951238,0.6553865205134697,0.3716913535425695,0.014119482879317772
3.3785875698924066,-8.940501490831375,2.6731680715084076,-0.603919992197124,0.7470254416901005,0.09777693600810426,0.2601409296462264
3.3869710153341295,-8.953675852417947,2.657598690390587,-0.45739873876440135,0.7272617162478698,-0.19717304250218176,0.4722283146607906
3.4061335104703905,-8.905769614577293,2.6312502595782283,-0.24622546726203032,0.5998155022299867,-0.4562493671991174,0.609451308544488
3.3642156985402107,-8.915350862145424,2.6444243288040163,0.0010931929384417737,0.3842838340125082,-0.6483853943307184,0.6572070604188953
3.3354719558358195,-8.889002723693848,2.646819640696049,0.24828337192919617,0.11236292896001128,-0.7453250306971451,0.608457507173094
3.327088218033314,-8.887804629206657,2.637238393127918,0.4590232298150849,-0.17597868754373067,-0.7328579307453879,0.47037052348558384
3.3486460250616075,-8.83870088160038,2.6348430812358856,0.6024219361984365,-0.4385086572904047,-0.6128216353547539,0.26314940909950424
3.3606225845217708,-8.782410905957223,2.6252618336677553,0.6573226491818684,-0.6366921701975512,-0.40280840045617694,0.017187431559104984
3.3678085201978685,-8.786004019975662,2.6096924525499343,0.613393437897129,-0.7426158334516935,-0.12680286416203798,-0.2370469318339545
3.3498438271880153,-8.80756211936474,2.6072971406579017,0.47928857510297007,-0.7356833770593324,0.16198709508081807,-0.45034721218368684
3.3282860201597217,-8.881816495656967,2.5929252693057063,0.274835823772399,-0.6206765147900264,0.4269593637513715,-0.5974375579627356
3.337867267727852,-8.942897095084192,2.589332155287266,0.030067582719159425,-0.4144443159568749,0.6292484229608114,-0.6567939339258521
3.323495396375656,-8.951280832886697,2.5965180909633636,-0.21904107002139678,-0.14729662618806047,0.7390870046178426,-0.6197379391021026
3.300739787220955,-8.938106471300125,2.595320581197739,-0.43591850035749136,0.14142894433324593,0.7403651908860581,-0.4917644750031361
3.3175069704651836,-8.905769614577293,2.5977158930897715,-0.5888423910041026,0.40932449631460127,0.6329745043886043,-0.2916528279776665
3.339064777493477,-8.84468901515007,2.604901828765869,-0.6557596998704355,0.6211352421057003,0.4270350983076931,-0.04255880465272149
3.352239139080048,-8.820735896229744,2.600111204981804,-0.6237531856715273,0.735963220209652,0.1621565062370356,0.20735324773983804
3.3354719558358195,-8.84468901515007,2.608494650423527,-0.500048949239728,0.7427941170081572,-0.12658450357445167,0.4268305419685024
3.294751653671265,-8.887804629206657,2.5785533979535105,-0.30284094239635695,0.6405953644164304,-0.3967564329222844,0.5835317263280996
3.3175069704651836,-8.93571086704731,2.5785533979535105,-0.061135944152442404,0.44428110248704933,-0.6086882966141409,0.6545038241832182
3.3031350991129877,-8.978826481103898,2.600111204981804,0.1894777280759108,0.18267004313230803,-0.7311846066413175,0.6293638986437129
3.2971469655632974,-8.978826481103898,2.6168783882260325,0.416971414408822,-0.11261225468199097,-0.7452890261314397,0.5079346288543389
3.275589158535004,-8.962059590220452,2.613285274207592,0.5774508237677216,-0.3845723648676929,-0.6482226982240447,0.3137865131218819
3.2839726039767267,-8.91056023836136,2.6216690120100976,0.6531406457827503,-0.6000445316827351,-0.4560152164358159,0.07351176234545667
3.3354719558358195,-8.786004019975662,2.585739333629608,0.6328015084986749,-0.7274766881672649,-0.19683030983621191,-0.17775755439578506
3.3737969461083415,-8.801573401093483,2.5270540460944177,0.5192999899742967,-0.7480571952408847,0.09136370674959379,-0.40297720301527074
3.3486460250616075,-8.93571086704731,2.5270540460944177,0.3294724594323249,-0.658644749867156,0.36610639876496087,-0.5688594701078623
3.307925722897053,-9.012360847592355,2.5581931006908416,0.09131228351229485,-0.4723630934776646,0.5870095602296073,-0.6511182311984703
3.2959491634368896,-9.071046427488328,2.62047120988369,-0.16600170631942687,-0.20997895174399975,0.7235442952612087,-0.6362671813935485
3.293553851544857,-9.067453313469887,2.646819640696049,-0.39282044552035067,0.07780419247224513,0.7493026811348941,-0.527431604342207
3.3103210347890855,-8.970443328022958,2.6863424330949783,-0.5620545806918327,0.35413483176010613,0.66498512763455,-0.3412886597624229
3.370203832089901,-8.875828362107278,2.657598690390587,-0.6488515817536981,0.5784075334030422,0.4831225933739083,-0.10501861706384252
3.415714758038521,-8.877025871872902,2.6420290169119838,-0.6403798489540795,0.717844787463566,0.2303628335743526,0.1467837697858086
3.3869710153341295,-8.918943976163865,2.633645571470261,-0.5377932825480863,0.751971786642594,-0.05619841109255976,0.3770391968089935
3.3534366488456726,-8.945292114615441,2.6492149525880815,-0.3561784881297277,0.6757528106579346,-0.33453493917973154,0.5518889362449082
3.342657891511917,-8.94888522863388,2.6647846260666848,-0.11617557147199326,0.4951515575823014,-0.5683761926981599,0.646743129218178
3.3438554012775423,-8.922537090182304,2.6647846260666848,0.13575145780635417,0.24491788768782602,-0.7124872897325539,0.6433883989967046
3.3821803915500643,-8.826724614501,2.638436195254326,0.36779046363511925,-0.04119740088159381,-0.7519523563724615,0.5455278203406018
3.413319446146488,-8.762050901055336,2.608494650423527,0.545872614450288,-0.3212679540758062,-0.6810086787926822,0.3674740397445763
3.4300866293907166,-8.812352743148804,2.6060993385314943,0.6437519109532429,-0.5541589784558655,-0.5100461178692745,0.1354409885790923
3.4348772531747818,-8.84588710963726,2.6216690120100976,0.6470630057730107,-0.7056830404140899,-0.2640950038353221,-0.11651069470715544
3.3821803915500643,-8.911757748126984,2.604901828765869,0.5553451742392254,-0.7535197092501116,0.020704915619865837,-0.35124221228378244
3.358227272629738,-9.000384580492973,2.633645571470261,0.3771705346550178,-0.6878394515763285,0.3088026358802714,-0.5378291631332575
3.3414600893855098,-9.017151471376419,2.6492149525880815,0.1471080202426295,-0.5212826198129374,0.5445205637535717,-0.6404069146337719
3.3486460250616075,-8.965652704238892,2.6743658736348155,-0.10452937143087274,-0.27823045339573943,0.7002382746077334,-0.6490976691422121
3.357029762864113,-8.897385876774788,2.718678997457028,-0.3408253161549792,0.0055465185504558635,0.7531757285453243,-0.5626132436497098
3.3558319607377056,-8.790794643759728,2.699516502320767,-0.5272054053050297,0.2885352956502835,0.6957030265784123,-0.3934452218426343
3.4169125601649286,-8.709354039430618,2.6683774477243425,-0.6361706418623283,0.529248906717978,0.5362016694985232,-0.1663438571071825
3.395354753136635,-8.80756211936474,2.656400888264179,-0.6507266912891618,0.6951295896912421,0.2915618190185113,0.09133089548538383
3.365413208305836,-8.92373459994793,2.6791564974188806,-0.5682362430947683,0.7539072782591255,0.008905376484616447,0.32962415277271184
3.342657891511917,-9.027930813431741,2.6983189925551416,-0.4024012013914567,0.7018890846329259,-0.27503227675902275,0.5194056533506487
3.307925722897053,-9.063860199451447,2.691133056879044,-0.17758567401638384,0.546775393569144,-0.518562548608447,0.6329240717117389
3.2899610298871997,-9.029128323197366,2.689935254752636,0.07320572507079169,0.31145972316498866,-0.6858933634732721,0.6535931889227197
3.3103210347890855,-8.93571086704731,2.6791564974188806,0.3133018938250343,0.03055965368320056,-0.7525721854140107,0.5783970406507882
3.3103210347890855,-8.867444624304772,2.676761185526848,0.5075078111905862,-0.25479653986484746,-0.7089039824906571,0.41829378248107846
3.318704772591591,-8.859060886502267,2.6552033784985545,0.6289863966687618,-0.5079842035543253,-0.5566913294544494,0.19084791184386157
3.3486460250616075,-8.8542702627182,2.6348430812358856,0.6543498556087042,-0.6801102079084328,-0.32509508335473486,-0.05991292299825029
3.346250713169575,-8.894990857243538,2.6037040266394618,0.5836378356341922,-0.7524399783671455,-0.04572678000808192,-0.30184435949869554
3.3306813320517543,-8.957268966436386,2.6072971406579017,0.42731954814147727,-0.714305684941854,0.2403395874122994,-0.49940191725542865
3.3115188369154933,-9.00517520427704,2.614483076334,0.208361061302814,-0.5713145784306262,0.49112967098773025,-0.6236801799647674
3.288763227760792,-9.012360847592355,2.600111204981804,-0.041109386447915855,-0.34451028383168597,0.6698271569690593,-0.6564710675017097
3.269600732624531,-8.982419595122337,2.5833440217375756,-0.28451466411616705,-0.06722360069177273,0.7502694090719024,-0.5929824678890566
3.275589158535004,-8.941699585318565,2.5833440217375756,-0.4903003183585616,0.22656410508299193,0.7187023624311096,-0.4378826536200974
3.304332901239395,-8.875828362107278,2.576158086061478,-0.6187527794100902,0.4802035405561317,0.5810652392440837,-0.22116226023410843
3.318704772591591,-8.841096485853196,2.5677743482589723,-0.6563479397214694,0.6634466742007612,0.35812879115607543,0.028100915650909365
3.323495396375656,-8.82911963403225,2.5258565363287926,-0.5974784526004301,0.7493531744782922,0.08258576736153515,0.2732561245549828
3.318704772591591,-8.892595252990724,2.5222634223103526,-0.4508823698848781,0.7252244863200795,-0.20509114617887128,0.4782176855029616
3.2923563417792323,-8.969245233535768,2.518670600652695,-0.23815142526576902,0.5945823643389636,-0.46267058315102016,0.6129368989934164
3.275589158535004,-8.999187070727348,2.524658734202385,0.015561910098116308,0.3706549943021098,-0.655745793858216,0.6575485959153584
3.3067282131314277,-9.003977694511414,2.5330424720048907,0.26127129981130187,0.09662912855523587,-0.7470020109511486,0.603645686677631
3.357029762864113,-8.903374595046044,2.5330424720048907,0.46876361641734804,-0.19159141050312542,-0.7286300012709884,0.4611417619264076
3.3666110104322433,-8.824329010248185,2.5102868628501893,0.6074551288198895,-0.4516664403971037,-0.6033605281799571,0.2509019053810157
3.380982881784439,-8.82911963403225,2.5150774866342545,0.6569594749574702,-0.6455079325648209,-0.3894997840321581,0.0036980398048299043
3.370203832089901,-8.880618985891342,2.5354377838969233,0.6099088636167376,-0.744592171248736,-0.11841384026604902,-0.24407342958683464
3.3306813320517543,-8.93930398106575,2.5785533979535105,0.47327783370609144,-0.7343110986511378,0.17011199771805768,-0.4559136000961148
3.2923563417792323,-9.008768318295479,2.5905299574136733,0.2615388346325672,-0.6121531158206683,0.43937680335706525,-0.6031699805542488
3.3151116585731506,-9.02673271894455,2.561786214709282,0.015713442015210577,-0.4016137693144583,0.6372631746982611,-0.6575371580455065
3.3630178964138033,-8.974035857319832,2.556995590925217,-0.23241412507440307,-0.13213795348358734,0.7414828496725343,-0.6154075229931519
3.3977500650286676,-8.928525223731995,2.5102868628501893,-0.4464906381307245,0.15669764322921473,0.7368261097966537,-0.48288636612556957
3.376192258000374,-8.885409609675408,2.5342399817705155,-0.5950185643682244,0.42247667817321954,0.6239864216664309,-0.27947685062062333
3.371401634216309,-8.875828362107278,2.5354377838969233,-0.6561732257635207,0.6262669530327597,0.41952624696197294,-0.034987561220535174
3.3558319607377056,-8.92732771396637,2.5486118531227113,-0.620955238398396,0.7381240839546692,0.15340924499995426,0.21459970209721999
3.3438554012775423,-8.992000842690468,2.528251848220825,-0.49045406678261977,0.7403657271255757,-0.14207781534432154,0.437181075598192
3.3558319607377056,-9.006372714042664,2.5689721503853797,-0.29006799742073974,0.6323954990718694,-0.4099006310517433,0.5898457105797629
3.371401634216309,-8.989605823159218,2.6025065168738366,-0.047142897876327194,0.43159128219656623,-0.6174459002159566,0.6559474617820036
3.380982881784439,-8.957268966436386,2.608494650423527,0.2027087130401946,0.1674886699910375,-0.7343307383117903,0.6257915706149151
3.357029762864113,-8.914153352379799,2.6348430812358856,0.4228592729952501,-0.121235778036478,-0.7434592697017606,0.5037462016336633
3.384575703442097,-8.837503371834755,2.6096924525499343,0.5809309991933441,-0.3921724499355975,-0.6434993051826022,0.3076176001421935
3.4252960056066515,-8.867444624304772,2.555797788798809,0.6536471263015702,-0.6055688276199933,-0.4490557621529034,0.06618724778929139
3.4312844315171245,-8.921338995695114,2.5390306055545806,0.6284990478767629,-0.7317509846898583,-0.18195561061190982,-0.19084443662384365
3.4252960056066515,-8.982419595122337,2.531844669878483,0.5105673636083752,-0.7462608763542866,0.10622826146439722,-0.41368010359114077
3.415714758038521,-9.023140189647675,2.5162752887606623,0.31769118206748337,-0.6511604887126273,0.3788496314757608,-0.5757910102691581
3.376192258000374,-9.00517520427704,2.5019034174084664,0.07822606156698673,-0.46044988553632404,0.5958090568624388,-0.6533591309241766
3.346250713169575,-8.951280832886697,2.5066940411925316,-0.1726877845830514,-0.202206582704185,0.7252595455971625,-0.6350511935955168
3.3342741537094116,-8.885409609675408,2.5306471601128577,-0.39829338644382445,0.08569336162868707,0.7482637959812534,-0.5235650081046389
3.337867267727852,-8.850677733421326,2.5138799768686297,-0.5685093910509552,0.3670923056742515,0.6581913726505394,-0.3298854776585853
3.3630178964138033,-8.859060886502267,2.51986811041832,-0.6505394038337314,0.5876970342092793,0.4722613435206883,-0.09154181261753992
3.3630178964138033,-8.849479638934136,2.528251848220825,-0.6370785610568898,0.722051118503804,0.21700020868951875,0.160262281082586
3.3558319607377056,-8.850677733421326,2.4839384320378306,-0.5300646368228077,0.7504523913162389,-0.07010373399018033,0.38850760048971716
3.3486460250616075,-8.872235248088836,2.4743571844697,-0.3452148798080782,0.6686901571332774,-0.34697938594166167,0.5597190958362187
3.3342741537094116,-8.893793347477914,2.5066940411925316,-0.10971332990438844,0.488721038592822,-0.5729289004711846,0.6487427893109284
3.3282860201597217,-8.91056023836136,2.511484664976597,0.14185902640990578,0.23701772368919588,-0.7147489273074662,0.6425204947673281
3.333076643943787,-8.934513357281686,2.5150774866342545,0.3776154015927748,-0.05641955649998371,-0.7511817999606848,0.5384694471667806
3.3414600893855098,-8.92732771396637,2.531844669878483,0.5520441495992531,-0.3349268712527356,-0.6750746921211004,0.3568548834802356
3.3737969461083415,-8.91056023836136,2.5078915509581567,0.6454844477539499,-0.5642764570730274,-0.4998600187044727,0.12280826275806699
3.3666110104322433,-8.872235248088836,2.5019034174084664,0.6441614566820781,-0.7107857398415767,-0.25124329090550057,-0.1292921441467341
3.3450532034039497,-8.82911963403225,2.504298729300499,0.5482372003466108,-0.7529564442101818,0.034247539674810895,-0.3623805614332697
3.3450532034039497,-8.830317143797874,2.5162752887606623,0.371780270590507,-0.6845928325450361,0.31474166625306665,-0.5422635591221828
3.3450532034039497,-8.875828362107278,2.5270540460944177,0.1407394860108102,-0.5157102956733938,0.5490238085676802,-0.6425014752043088
3.3498438271880153,-8.92373459994793,2.542623719573021,-0.11696080656574624,-0.26463403829696697,0.7051695460507864,-0.6473213319709595
3.3402625796198846,-8.93571086704731,2.5522049671411517,-0.3514865634779182,0.02020135893241625,0.7529442901996004,-0.5559892055135488
3.3594250747561456,-8.914153352379799,2.518670600652695,-0.5344572030363129,0.3020469525465474,0.6902136158976239,-0.3830513033648005
3.389366327226162,-8.887804629206657,2.505496239066124,-0.63902486640908,0.5395674216715688,0.5261688933061689,-0.15381974287624608
3.3869710153341295,-8.887804629206657,2.5258565363287926,-0.649741532864012,0.6979134705109981,0.2848534892790471,0.09803681857531918
3.389366327226162,-8.877025871872902,2.518670600652695,-0.5649806850729788,0.7538171402049145,0.0017066430281204204,0.3354901369598314
3.389366327226162,-8.90816521883011,2.5294493579864503,-0.39229729570804844,0.6964163744564225,-0.2881595775635881,0.5273244950004677
3.389366327226162,-8.950082738399505,2.5354377838969233,-0.16522118199475266,0.5366451063103226,-0.5287244836044221,0.6365252637018242
3.370203832089901,-8.993198352456094,2.531844669878483,0.08601081809035663,0.29808856971879016,-0.6915765157590397,0.6522785192117094
3.3450532034039497,-9.000384580492973,2.5342399817705155,0.3245551826963731,0.015786472429712487,-0.7528762684670358,0.5723565715987734
3.352239139080048,-8.971640837788582,2.542623719573021,0.5154616825488954,-0.2687479551829909,-0.7036841501836935,0.4085369104365921
3.3737969461083415,-8.900978990793229,2.542623719573021,0.6308070497388716,-0.5138535561620483,-0.5512743062782098,0.18475288375783494
3.3486460250616075,-8.868642134070397,2.5653790363669398,0.6535878867960153,-0.6836176609237838,-0.31797361813975017,-0.06620080115625508
3.3678085201978685,-8.82911963403225,2.5414259174466136,0.5773993781319533,-0.753486401508099,-0.03114198175635753,-0.31288716472155925
3.389366327226162,-8.820735896229744,2.52346122443676,0.41704786711381436,-0.7098370941548782,0.2540292495907332,-0.5076135504987488
3.3929594412446025,-8.867444624304772,2.481543120145798,0.19536942269130178,-0.5619660027225033,0.5019574171909792,-0.6277449735269253
3.3917616391181946,-8.982419595122337,2.4599853131175045,-0.054958842045032444,-0.33156644906024185,0.6761466184790248,-0.6556439322208596
3.3857735055685043,-9.03391894698143,2.436032194197178,-0.2971832784901941,-0.05246275721056637,0.7510106050092393,-0.587292796869961
3.370203832089901,-9.051883932352066,2.4647759369015696,-0.49572387682099484,0.23430235846704614,0.7155401160362801,-0.4328539997610391
3.327088218033314,-9.02673271894455,2.52346122443676,-0.6215606944443046,0.4866608990292608,0.5749725118707557,-0.2150118207703454
3.300739787220955,-8.982419595122337,2.555797788798809,-0.6558262133671627,0.670805695118869,0.3439130199575634,0.04044171064938276
3.3175069704651836,-8.91654837191105,2.543821229338646,-0.5920029454024314,0.7511888363957904,0.06692183211548067,0.28419942486833405
3.342657891511917,-8.906967124342918,2.498310303390026,-0.44119054404186914,0.7214506321667892,-0.21991250081000083,0.48631099224844915
3.3678085201978685,-8.903374595046044,2.4767524963617324,-0.2254825257098329,0.5858860670859988,-0.47453535080535975,0.6170181098071993
3.3833781936764717,-8.8542702627182,2.4420204739272595,0.023419324363291468,0.3643276103893253,-0.6595461383953742,0.6570508495406735
3.3929594412446025,-8.884212099909783,2.382137676626444,0.2689334761519023,0.0892153088041186,-0.7477337749549171,0.6005077983436262
3.403738198578358,-8.918943976163865,2.382137676626444,0.4749296925271267,-0.1989531824126075,-0.7260360750887169,0.4557752033993903
3.3725991439819336,-8.983617104887962,2.4456134417653086,0.6133791292213261,-0.4634017113686654,-0.5934281430397719,0.23846999137134198
3.3258907082676887,-9.01116333782673,2.485136234164238,0.6576654896725188,-0.6530106053442727,-0.3754560343198833,-0.009274658726828294
3.3031350991129877,-9.031523342728615,2.5162752887606623,0.6055134303608254,-0.7466963244445685,-0.10239074733263967,-0.25556646801625077
3.29954227745533,-9.012360847592355,2.5162752887606623,0.4645405755821908,-0.7307897282609177,0.1857055444064305,-0.46439409716620234
3.3402625796198846,-8.928525223731995,2.486333743929863,0.2552990311388943,-0.6076670870910147,0.44659045234448186,-0.6050785765837476
3.426493807733059,-8.865049604773521,2.448008753657341,0.00844711897269076,-0.3953326315409856,0.6419624042972716,-0.6569056462604099
3.4169125601649286,-8.880618985891342,2.4456134417653086,-0.2453479641443723,-0.11806561166412788,0.744250662336118,-0.6098818241633676
3.414517248272896,-8.911757748126984,2.4683690509200096,-0.45697479634876165,0.17060054538031585,0.7335257400953286,-0.4732963955446386
3.3929594412446025,-9.0243376994133,2.4839384320378306,-0.6014841696360608,0.4342026341304046,0.6150272983813205,-0.2672569707925515
3.3558319607377056,-9.059069575667381,2.5078915509581567,-0.6577035753171595,0.6339915364370697,0.4061943571156039,-0.022065425185810478
3.339064777493477,-9.03990708053112,2.51986811041832,-0.6174557675136344,0.7406452738364292,0.1377966672989241,0.22628528893681749
3.365413208305836,-8.94888522863388,2.5390306055545806,-0.4866359749175327,0.7385939237140664,-0.1507890944500667,0.44150548440948184
3.3869710153341295,-8.899781481027604,2.5138799768686297,-0.2843598733045573,0.6281914732281443,-0.41725990317567063,0.5919536372212775
3.4121219363808635,-8.885409609675408,2.5066940411925316,-0.034097253271043904,0.4199054713433229,-0.6264606529559843,0.6557925150177257
3.4300866293907166,-8.856665866971017,2.5102868628501893,0.21572259545242098,0.15374635499753112,-0.737940864182389,0.620700492271428
3.4252960056066515,-8.891397743225099,2.453997179567814,0.4338362191575369,-0.1350081853122813,-0.7410920815038389,0.49430906483503395
3.4300866293907166,-8.957268966436386,2.453997179567814,0.5881810311334572,-0.4039719487296635,-0.6353656782501171,0.29522905371272273
3.408528822362423,-9.015953961610794,2.473159674704075,0.6560829285814832,-0.6135358218126331,-0.4362793269438372,0.05281415584929503
