2.893536765575409,-9.61478193461895,0.45630691543221474,-0.4222140362456747,0.7151978101039456,-0.2387701003365331,0.5032059610188842
2.824072720706463,-9.681850667595864,0.18922963947057725,-0.19482600837401723,0.5667619748390361,-0.49525916953798355,0.6289213347678309
2.824072720706463,-9.863894956111908,0.36288975164294246,0.05712029671431766,0.3364847577497526,-0.6716824724136533,0.6575393035839308
2.791736156344414,-9.972881208658219,1.137773148715496,0.3007653299089958,0.056154980200478447,-0.7481236317265495,0.5888105520247534
2.8456305277347567,-9.673466929793358,1.8719362436234952,0.49995478993876674,-0.23240076008332908,-0.7131833434986906,0.4329025447903988
2.989349241256714,-9.338123264908791,2.231233027428389,0.6250999747986599,-0.4861443181259768,-0.5722598596533903,0.21314871918457762
3.109114835858345,-9.324949488043785,2.197698660939932,0.6578200399644724,-0.6676451503105887,-0.3465427724787847,-0.037826645775283545
3.1594163855910304,-9.532143820524217,1.8683432757854463,0.5932416440511528,-0.75040264463853,-0.06962087892042652,-0.2830426750533083
3.1642070093750956,-9.716582543849945,1.4276058876514435,0.43613433235398497,-0.7203961511275874,0.2242160706540457,-0.49045222320136533
3.165404811501503,-9.778860653042793,0.9784849078953267,0.21692227759378171,-0.5833872406650371,0.4781025227135025,-0.6196951110729735
3.2264851185679437,-9.79083750486374,0.5173873686790467,-0.03484280836614383,-0.3602407931254283,0.6613184321172869,-0.657016347601379
3.2444501039385796,-9.772872519493104,0.2730655556917191,-0.28171166329650243,-0.08380797372112446,0.7466034770500906,-0.596823265598948
3.262414796948433,-9.675862534046173,0.3161811697483063,-0.4871508278935331,0.20503828341299168,0.7210511113979129,-0.4480275303701032
3.185764816403389,-9.43633134484291,0.75332559004426,-0.6206160740124185,0.46339508565232834,0.5881156880028724,-0.2328532172755872
2.976175172030926,-9.009965828061103,1.479105093330145,-0.6621641584506189,0.6561393208950144,0.3612562156961656,0.022666394942696323
2.8097008493542672,-9.038709570765496,2.0659565068781376,-0.6040865701789567,0.7455502057246522,0.08486042808419766,0.2683896686139759
2.7246674233675003,-9.18961392760277,2.352196277976036,-0.4574938004390709,0.7242102442418252,-0.20390319315826225,0.4739645899377669
2.8683861368894576,-9.406390092372895,2.212070532292128,-0.24402686253991904,0.5959032603143748,-0.46228636966120895,0.6096240703344005
3.032464855313301,-9.50459758758545,1.7809143917262555,0.005167333368702873,0.3799686402113305,-0.6525619574915421,0.6555608459606294
3.173788256943226,-9.32255388379097,1.2575387433171272,0.25388873220156793,0.10819311694276643,-0.7471202191471995,0.6046868108771101
3.2540313515067103,-8.934513357281686,0.8814747762680054,0.4655439309073958,-0.17976959248384117,-0.7319874844388463,0.4638384035829432
3.210915737450123,-8.669831539392472,0.7784763649106026,0.6106967277418839,-0.4470696410802377,-0.6047667808935063,0.2478616216307971
3.0743829596042636,-8.684203410744667,0.976089596003294,0.6606067369797083,-0.6416822027999789,-0.3896684021506202,-0.001107263370543172
2.9725820580124855,-8.799178381562234,1.1198083095252513,0.6118363261054757,-0.741228177663958,-0.11678265262369214,-0.250197743276985
2.9917445531487465,-8.83510776758194,0.9712989722192288,0.47168887300950824,-0.7306929925789168,0.17337917026471802,-0.46210066110470444
3.10791732609272,-8.905769614577293,0.6539201465249062,0.2612332122351787,-0.6113596001642687,0.437796565711352,-0.605252687035441
3.1701954352855686,-9.275845155715944,0.5305615840852261,0.012099557233699551,-0.4006287050748402,0.6369881460155342,-0.6584803286511279
3.1174985736608507,-9.62196816265583,0.810813075453043,-0.23858439691728953,-0.12981340163644728,0.7409904527569307,-0.6141328156240037
3.00372111260891,-9.760896252393723,1.4491636946797373,-0.45813300553447506,0.16738316178457616,0.7326554551729609,-0.47467147628254247
2.933059557974339,-9.607596291303635,1.9845159025490284,-0.6038612685611652,0.43259918419370885,0.6137973627831262,-0.2673243565542003
2.971384548246861,-9.321356374025346,2.0899096257984637,-0.659958952067861,0.633286589051651,0.40370919899322744,-0.020522191916625517
3.154625761806965,-9.126138308644295,1.6072542795538902,-0.6182020348061578,0.7398581554457885,0.13385738522210533,0.22916883383955697
3.3869710153341295,-9.021942095160485,1.0108216184377672,-0.4846408930291916,0.7368230769665176,-0.15580809010555693,0.4449031322783866
3.580991278588772,-8.752469653487205,0.553317047059536,-0.27856138395630614,0.6244937192020968,-0.4225887067303261,0.5948360572371773
3.4971553623676304,-8.482997211813927,0.33055304110050204,-0.02471257371180176,0.4131985600565549,-0.6304509633335548,0.6566489332204243
3.342657891511917,-8.766841524839402,0.47427175462245946,0.22658552206337537,0.143853738757553,-0.7382911436194358,0.618782102431742
3.374994455873966,-9.374053235650063,0.5521193911135197,0.44385340605548146,-0.14701214365057208,-0.735720988702321,0.48999613297973144
3.528294416964054,-9.945334975719453,0.45510925948619846,0.5955296830879275,-0.41588351661520595,-0.6233055075125695,0.28961274397626313
3.5905725261569024,-10.077077422142029,0.591642037332058,0.6598201467523999,-0.6227583954510505,-0.41783950197866854,0.047111627238855404
3.370203832089901,-9.698618143200875,1.3605371546745302,0.6276115903288887,-0.7367795856271815,-0.14993597873303907,-0.2019374560829355
2.8899439439177517,-9.10577830374241,2.1461994552612307,0.5038822218798293,-0.741232086192092,0.14020040424051705,-0.42073928687913237
2.543821229338646,-8.739295291900635,2.7031096163392068,0.3013874594273426,-0.6324756749658853,0.41519689613340516,-0.5803030736757873
2.485136234164238,-8.47102035999298,2.8216774088144305,0.05881808566775277,-0.4323538147180951,0.6220877627632188,-0.6500903222763322
2.499508105516434,-8.051841071248054,2.970186746120453,-0.19280364189505297,-0.1691386004637772,0.7381050804980079,-0.6240350788603058
2.336626750677824,-7.266178770661354,3.3354719558358195,-0.41626864093352905,0.11887132211275289,0.74655954992639,-0.5052117039105734
2.3737540850043297,-7.025450071692467,3.179776682853699,-0.5779538757661786,0.3899428849183738,0.6460856207104572,-0.31062394418262695
2.434834538251162,-7.433850603103638,3.1558235639333727,-0.6536501729186885,0.6041476207333771,0.4504077491832152,-0.06985673397231025
2.339022062569857,-8.34287161231041,3.657641259133816,-0.6324314384372128,0.7293370261513358,0.18796770005103217,0.18101414778543945
2.0120619893074037,-9.487830696702003,4.428931688368321,-0.5140585297052468,0.7458116999135573,-0.10885756449568651,0.4094615573669858
1.6839042600989342,-9.905812475681305,4.987039359211922,-0.32183063323433825,0.6509177148036738,-0.3820555244919163,0.5716334037405045
1.5533597619831563,-9.497411944270134,4.892424685657025,-0.08228842958873339,0.46103185666091523,-0.5987736019285769,0.6497294938149933
1.7162409706413746,-8.883014005422593,4.4756404164433485,0.1695857774596355,0.20375846104115994,-0.727959148096676,0.6322963168799189
1.7425894014537335,-8.776422772407532,4.148680197000504,0.3968170664772545,-0.08375592701846761,-0.750716165230126,0.5214848029462006
1.8024721987545491,-8.93930398106575,4.0756233304739,0.5656555816873529,-0.3590516102922229,-0.6632129463025898,0.333563025392717
2.1330252398550513,-9.354890740513802,3.8816030672192574,0.6512805821636839,-0.581352651308954,-0.47813007251130596,0.09619943800727773
2.4072884514927866,-9.657897548675537,3.547456912100315,0.6393780479889006,-0.7199932079582724,-0.2160422873799854,-0.16165154594832262
2.425253290683031,-9.607596291303635,3.242054792046547,0.5321013237868591,-0.7481518852314063,0.07243522129269937,-0.38973077446519755
2.3605798695981504,-9.298600764870644,3.065999221801758,0.34612214595061547,-0.666061938382149,0.35018864304159336,-0.5602935557418475
2.3270455031096935,-8.978826481103898,2.9821633055806163,0.10896618069051933,-0.4858585364874417,0.5761666377144401,-0.6481511085949322
2.3258478471636774,-8.782410905957223,2.923478310406208,-0.14433699313167989,-0.23417115836706318,0.7171536419160015,-0.6403290988931777
2.434834538251162,-8.73809778213501,2.8971298795938494,-0.37640789282750486,0.051950022759810595,0.7523970034193542,-0.5380678791732406
2.4743571844697,-8.82313150048256,3.022883607745171,-0.5562884813793247,0.3366876844347895,0.6735433943633884,-0.35145956317060056
2.425253290683031,-8.859060886502267,3.0061164245009424,-0.6490832567570148,0.5650449395488945,0.4957702756199328,-0.11673463881654556
2.511484664976597,-8.994396446943284,3.0049189147353172,-0.6462906394637723,0.7101241721624222,0.2445906919368499,0.1349350320339237
2.531844669878483,-9.257880755066871,3.0492320385575296,-0.5484954011428642,0.7503616067008236,-0.04294512336880862,0.36642321227417457
2.4887290558218957,-9.382436973452569,3.127079821228981,-0.37020996023055636,0.6797938908038396,-0.32424458695025854,0.5437741251708503
2.390521268248558,-9.333332641124725,3.2204969850182534,-0.1378932630879871,0.5090221894171006,-0.5576293016501143,0.641039328448087
2.4024978277087214,-9.202788289189339,3.2456476137042047,0.11438890497921309,0.26348471529504947,-0.7088185518642878,0.6442571254992507
2.40609079554677,-8.946490209102631,3.3486460250616075,0.35497925022723115,-0.02759798828654623,-0.7556409311557981,0.5497589163557486
2.3270455031096935,-8.921338995695114,3.433679743409157,0.5373977463540578,-0.30815157528377496,-0.689161127080833,0.3759031920380347
2.2264424036443233,-8.930920243263245,3.44565630286932,0.6408713351145577,-0.5436584261131183,-0.521678081237179,0.14687214542378887
2.294708792567253,-8.92612961947918,3.4540397483110428,0.6501805582874834,-0.6995882177330516,-0.2776054952819657,-0.10381115654554406
2.397707203924656,-8.924932109713556,3.403738198578358,0.5639479211867638,-0.7528418371364392,0.00735018781586949,-0.3393197388676796
2.3989048598706724,-8.777620282173157,3.4600281742215158,0.3948963517059846,-0.6952951435235364,0.29134219401959466,-0.5251107128841853
2.4084861074388026,-8.814747762680055,3.428889119625092,0.16791863972973933,-0.5354917123865708,0.5325290634768156,-0.6336124627476308
2.5019034174084664,-8.874630852341653,3.3103210347890855,-0.09004136104259217,-0.2905180729479599,0.6983550732170146,-0.6479135700880632
2.3378244066238403,-8.801573401093483,3.2971469655632974,-0.32864400914746805,-0.007402508557950896,0.7565210500820658,-0.5653443365783872
2.1426064874231816,-8.833910257816315,3.3151116585731506,-0.5185543830995862,0.2768830324930968,0.7033361110021561,-0.3996941994149989
2.1713502301275733,-8.995593956708909,3.361820386648178,-0.632208156529488,0.5202967425958691,0.5466377631577841,-0.1754745062724738
2.343812686353922,-9.072243937253953,3.3666110104322433,-0.6531504349039022,0.6870189263275247,0.3096078613601881,0.07444781015307987
2.486333743929863,-9.037512060999871,3.3630178964138033,-0.5783781548061722,0.7526439608947562,0.02717464109903329,0.31347618259255194
2.500705615282059,-8.989605823159218,3.3929594412446025,-0.4139392049472256,0.705342645565604,-0.26576584394896197,0.5104063118186035
2.420462666898966,-8.856665866971017,3.4540397483110428,-0.1916078067716565,0.554189752212816,-0.5126943686332357,0.6271400571628487
2.313871287703514,-8.770434638857841,3.523503793179989,0.05903899214610874,0.32172560242220216,-0.684445788831897,0.6515681056518381
2.2491978666186334,-8.669831539392472,3.511527233719826,0.3011880148391933,0.0419002463533994,-0.7559226574158587,0.579750881912306
2.2336283393204215,-8.739295291900635,3.537875664532185,0.4988533498243236,-0.2442695320947689,-0.7163267052022044,0.4223195265121041
2.179733821749687,-8.915350862145424,3.6300953185558322,0.6228579903423682,-0.494653256702361,-0.5712066911384454,0.20270420691017518
2.150990079045296,-9.13691706597805,3.7390818634629253,0.6550784589296176,-0.6721315263072027,-0.34197934847170725,-0.0464924640045478
2.1725478860735894,-9.251892036795617,3.7977671509981157,0.5884044799361526,-0.7511098426899911,-0.05567400188614678,-0.29413360521923326
2.2539884904026986,-9.193207041621209,3.766628096401692,0.43609337226488804,-0.7163911660261925,0.23230091380788584,-0.4925876098221425
2.3893236123025416,-9.114162041544915,3.638478763997555,0.2197515717589702,-0.5765817299463144,0.48596851167730837,-0.6189485932286455
2.382137676626444,-8.977628971338273,3.5258991050720216,-0.028895103347279384,-0.35234386833564574,0.6682795495708976,-0.6545390095892997
2.4072884514927866,-8.902176500558854,3.446853812634945,-0.2735049425594131,-0.07655704018762506,0.7527223822808528,-0.5939217803774504
2.32824315905571,-8.878223381638527,3.4791906693577768,-0.4778695872856028,0.21052833828915785,0.7269295259739139,-0.4459730267538997
2.2228494358062747,-8.8542702627182,3.4815859812498093,-0.611963870196905,0.46690780081238026,0.5944966097775106,-0.23253195065886853
2.2048845966160298,-8.989605823159218,3.370203832089901,-0.6559553004623323,0.6582620597699401,0.3687421003772434,0.021046801946762853
2.304290040135384,-9.116557061076165,3.2396594801545144,-0.6017096710948254,0.747453102506084,0.0931093852974119,0.26568773707968674
2.362975181490183,-9.21236953675747,3.256426663398743,-0.4594193406660639,0.7268084299837851,-0.1962307992889688,0.4713563926975818
2.370161117166281,-9.22793891787529,3.342657891511917,-0.25004935675488366,0.5994294384277238,-0.45664922153333487,0.6079729895362884
2.347405654191971,-9.152487031817437,3.3678085201978685,-0.0042647616932160294,0.3841724097224616,-0.649935007010052,0.6557269691560511
2.294708792567253,-9.037512060999871,3.39655226290226,0.24210266420168702,0.11263878481249692,-0.7478725802451165,0.6077708514398504
2.3150689436495306,-8.992000842690468,3.4217031839489938,0.45309275297654833,-0.17529837751919777,-0.7363532170755239,0.47091546560056396
2.256383802294731,-8.91056023836136,3.394156951010227,0.6001206047954456,-0.4433797901502737,-0.6132509120095837,0.25921601089759405
2.256383802294731,-8.7440859156847,3.403738198578358,0.6547937373511364,-0.639933345778972,-0.40192764876699605,0.01358821704625626
2.2192564679682256,-8.794387757778168,3.395354753136635,0.6132297491772433,-0.7428289622681451,-0.1316999340842722,-0.23411436286961193
2.1677572622895243,-9.017151471376419,3.4552375504374506,0.4815207059053152,-0.7369005581064881,0.15795604672374614,-0.44739832872977847
2.209675220400095,-9.157277655601503,3.503143788278103,0.27914735826179166,-0.6228391561892638,0.42447370520856265,-0.5949539574449632
2.231233027428389,-9.192009531855584,3.553445338010788,0.03598217673288997,-0.4173204013045346,0.6286411893920816,-0.6552550805696162
2.209675220400095,-9.166858903169633,3.537875664532185,-0.21818252396507723,-0.1437978180668028,0.7419361638307675,-0.6174538869871495
2.1881174133718013,-9.01475645184517,3.483981293141842,-0.4343360271135586,0.14491073475923633,0.7424412210241221,-0.48901342295172145
2.279139265269041,-8.905769614577293,3.3881688174605373,-0.5869268616019957,0.41231401638051,0.6341414875891405,-0.28875350170073505
2.313871287703514,-9.025535209178924,3.3737969461083415,-0.6534487611405201,0.619301915766816,0.4328380231268803,-0.046055395200620346
2.2527908344566825,-9.061465179920196,3.45164443641901,-0.6240017258825796,0.7355505045019257,0.16800854682107633,0.20337263733746117
2.231233027428389,-9.075837051272392,3.480388179123402,-0.5028583444780953,0.7439534123407813,-0.1215765485263943,0.4229491086450779
2.246802554726601,-9.012360847592355,3.4815859812498093,-0.3078608422136966,0.64312682640375,-0.3932368639434689,0.5804949231709265
2.2779416093230247,-8.91056023836136,3.428889119625092,-0.0614753470197062,0.4423811086740204,-0.6112355519488598,0.653384141551449
2.3737540850043297,-8.886607119441033,3.3019375893473626,0.1886108816039598,0.1803103387709124,-0.7335031033999562,0.6276044250764403
2.4036954836547375,-8.941699585318565,3.224089806675911,0.4110391442795297,-0.10821771634309717,-0.7480596908699954,0.5096493369317023
2.3533939339220526,-8.978826481103898,3.262414796948433,0.5731141560349051,-0.3809298570350783,-0.6527442328245197,0.3167926367293951
2.317464255541563,-9.01475645184517,3.339064777493477,0.6509537521030597,-0.5977378326151601,-0.4614978606038498,0.07738488703583443
2.2839298890531063,-9.072243937253953,3.357029762864113,0.6330759142500046,-0.7267548686689459,-0.20243426349172308,-0.17338574516686087
2.2503955225646495,-9.080627675056459,3.3546344509720805,0.5220929411843077,-0.7489941755805606,0.08641986594604785,-0.3986957392320395
2.218058812022209,-9.087813318371774,3.49116722881794,0.3291254114652266,-0.6577919267604179,0.3686571796872142,-0.5683996204095596
2.1665596063435077,-8.95846647620201,3.592967838048935,0.09164121792318419,-0.4706742190739939,0.5897291927879827,-0.6498362454113157
2.154583046883345,-8.860258980989457,3.6360834521055225,-0.15927873803016723,-0.21439360420232878,0.7241362447488834,-0.635839889539527
2.1222463363409045,-9.092603942155838,3.6049443975090982,-0.3866705398467326,0.07339864414100344,0.7522154048991374,-0.5284605162974103
2.216861156076193,-9.251892036795617,3.554642847776413,-0.5573166640311592,0.35044038493825,0.6697902717301865,-0.3434685786110778
2.2156635001301765,-9.31656575024128,3.560631273686886,-0.6461231090056122,0.5759828070677939,0.48894434997621916,-0.10817650668032719
2.197698660939932,-9.334530735611915,3.572607833147049,-0.6387183640591908,0.7190787763342906,0.22980359104422676,0.14884513556817353
2.201291628777981,-9.259078264832498,3.5354803526401524,-0.5367541301579211,0.7521142347305011,-0.057605583096310614,0.37802219309228413
2.248000210672617,-9.071046427488328,3.515120347738266,-0.3560099822483687,0.6749245973935519,-0.3363946603227362,0.5518807052969137
2.285127544999123,-8.903374595046044,3.5019459861516955,-0.12295503196435652,0.4989131104036749,-0.5658022177786317,0.6448531761096913
2.313871287703514,-8.769237129092216,3.4684116196632386,0.12831169361800424,0.24981202175349054,-0.7123457190578738,0.6431902048447519
2.3210572233796123,-8.867444624304772,3.377389767765999,0.36075502589152625,-0.035898119166521816,-0.7545076003221568,0.5470698469029442
2.3306384709477426,-8.970443328022958,3.3115188369154933,0.540288208490921,-0.3164016000036492,-0.6860038023984907,0.3706446578268927
2.3270455031096935,-9.009965828061103,3.3091235250234607,0.6417755598907833,-0.5552256206239028,-0.5117817612264829,0.13389574229822515
2.2779416093230247,-9.029128323197366,3.323495396375656,0.6457733918690259,-0.7062741907052917,-0.2653363865327929,-0.11726080282549274
2.267162705808878,-8.990803332924843,3.370203832089901,0.5551458761193829,-0.7537054642189958,0.020032594572268414,-0.3511977001473298
2.25997677013278,-8.950082738399505,3.4109241342544556,0.3831876503719309,-0.690589544882368,0.30240839620153864,-0.5336688739362787
2.286325200945139,-8.918943976163865,3.4169125601649286,0.15506994968073085,-0.5262608014828949,0.5403764332851722,-0.6379625301525103
2.265965049862862,-8.776422772407532,3.4001453769207,-0.09589781384152156,-0.28478702225687164,0.6991644931499906,-0.6487441504728946
2.32824315905571,-8.568030930161477,3.327088218033314,-0.3329387861640692,-0.0015675518466003163,0.7554875517924033,-0.5642586876030575
2.3114759758114816,-8.698575282096863,3.2588219752907754,-0.5247574493779882,0.28846708188541903,0.6984776914670984,-0.39184853772039524
2.275546297430992,-8.884212099909783,3.2540313515067103,-0.6342362850447631,0.5293373539776333,0.5387973264918989,-0.1650567822955417
2.2839298890531063,-8.992000842690468,3.2719960445165635,-0.6504803902862167,0.6924770481791995,0.2999480667917249,0.08591831484625768
2.279139265269041,-9.087813318371774,3.2839726039767267,-0.5712097974462801,0.753863883138897,0.016969139027439392,0.3242231659224717
2.2731509855389596,-9.11775457084179,3.2588219752907754,-0.4080841038770028,0.7044521135608127,-0.2684792639751417,0.5149111269704448
2.279139265269041,-9.12733581840992,3.2672054207324983,-0.18509818451553894,0.5515402507201635,-0.514402087001725,0.6300257985296004
2.270755673646927,-9.106975813508035,3.333076643943787,0.0650799708045575,0.3175781601677867,-0.6847291447441124,0.652728663322301
2.2503955225646495,-9.084220204353333,3.3737969461083415,0.3111047398691385,0.030076965225253414,-0.754822242526017,0.5766737372048334
2.2456048987805843,-9.042302684783936,3.3917616391181946,0.5054150248535332,-0.25556007153042626,-0.7110649978247394,0.41669085826325625
2.2384189631044866,-8.970443328022958,3.376192258000374,0.6254813662013775,-0.5037353627506929,-0.5628990522779753,0.19536735089017215
2.265965049862862,-8.978826481103898,3.3438554012775423,0.6535665153722451,-0.6779218664059297,-0.33208127594776266,-0.05472457581185756
2.2887205128371715,-9.049488328099251,3.333076643943787,0.5855532304636979,-0.7525188943554418,-0.0524655730973516,-0.29679974995130537
2.3078830079734325,-9.074638956785202,3.3103210347890855,0.43146055437584635,-0.7165408647598326,0.23482517626374297,-0.4952455105698796
2.309080663919449,-9.10577830374241,3.318704772591591,0.20816950486493294,-0.5708128806222139,0.4928954836505647,-0.6228098865279316
2.293511136621237,-9.145300803780556,3.323495396375656,-0.040986426036708525,-0.34331142786839247,0.6718913890161887,-0.6549956776510816
2.2719533295929435,-9.141707689762116,3.3055304110050203,-0.2840400931356237,-0.06540883325897712,0.7521716348695576,-0.590999781489691
2.3054876960814,-9.135719556212425,3.2875657179951667,-0.48540567652259803,0.2221178976475955,0.7219717398555453,-0.44022923073576997
2.3354290947318077,-9.068650823235512,3.2672054207324983,-0.6155097447871274,0.4770092339670616,0.5857360328065351,-0.22477376326943496
2.342615030407906,-9.00517520427704,3.242054792046547,-0.6551787987900535,0.6618372337947638,0.3635239973873936,0.023717523108623458
2.3306384709477426,-8.982419595122337,3.2204969850182534,-0.5986006134371225,0.7494687876868421,0.08792956734059686,0.26877915295500754
2.333033782839775,-9.051883932352066,3.2204969850182534,-0.4496183352950737,0.7251954010230331,-0.20725351376430753,0.47851955439028476
2.3450103422999384,-9.091406432390214,3.2288804304599763,-0.23727489142188637,0.5935461677349995,-0.46506400140135945,0.6124696296702263
2.3641728374361994,-9.047093308568002,3.2791819801926616,0.009847383224410441,0.37464685045220436,-0.6545589109474699,0.6565785547740174
2.331836126893759,-9.057872065901757,3.3055304110050203,0.25541296098314586,0.10072820435287295,-0.7478994579851994,0.6043711185646721
2.2779416093230247,-9.042302684783936,3.3342741537094116,0.46348434866003474,-0.18799167944217562,-0.7314367322614064,0.46351018727364485
2.2719533295929435,-9.03032583296299,3.339064777493477,0.6035322515603472,-0.449114141515126,-0.6076326338670778,0.2546132193688829
2.2575814582407476,-9.0243376994133,3.346250713169575,0.6549637380872756,-0.644365674516053,-0.3946463205757558,0.008346313691229259
2.232430683374405,-9.03032583296299,3.3486460250616075,0.607867471746277,-0.7462503220985922,-0.11684890690805975,-0.24485490910930954
2.2719533295929435,-9.068650823235512,3.346250713169575,0.47153136267769963,-0.7348837277256678,0.1721870308033419,-0.4560216082144214
2.3569869017601013,-9.045895214080812,3.29954227745533,0.2658598637576696,-0.6156486079566121,0.4358649415054915,-0.6002641727858272
2.3917189241945747,-9.04350019454956,3.2540313515067103,0.021025999922912153,-0.4060014099928647,0.635533557411714,-0.6563671684466396
2.415672043114901,-9.012360847592355,3.246845415830612,-0.22690946010320556,-0.13680331497360462,0.7417855310680038,-0.6160772482619887
2.420462666898966,-8.987210218906403,3.2252876088023186,-0.4415676626312152,0.15246167891291973,0.7390937263580619,-0.48529774308110407
2.404893139600754,-8.903374595046044,3.1881601282954217,-0.593963681346479,0.42505484726020343,0.6240679011938175,-0.2776234441856219
2.4120790752768517,-8.859060886502267,3.212113247215748,-0.6547446912547437,0.6283662978172948,0.4187484127505673,-0.033390894866678664
2.409683763384819,-8.867444624304772,3.2456476137042047,-0.6193854855686297,0.7394170221025603,0.1518776875308443,0.2157713042139241
2.3953118920326233,-8.921338995695114,3.2528335493803024,-0.4930282449451377,0.7418806426913794,-0.13733662431689303,0.43321462730081456
2.3797423647344114,-8.93571086704731,3.268403222858906,-0.2942505258894972,0.6353725363483668,-0.4063949096723578,0.5869936502726361
2.352196277976036,-9.013558942079545,3.2731938466429713,-0.052266354609147046,0.435491285380035,-0.615799832544457,0.6545274133083615
2.3342314387857916,-9.050685837864876,3.275589158535004,0.1973427681995565,0.17163684954443773,-0.7347244616155406,0.6259205933834981
2.319859567433596,-9.025535209178924,3.307925722897053,0.42263358286556685,-0.12430956054409499,-0.7446335458126576,0.5014467770781029
2.3102783198654655,-9.006372714042664,3.3163094606995585,0.5800819311056706,-0.3952238203163066,-0.6434860730231896,0.3053338482456439
2.265965049862862,-9.073441447019578,3.3103210347890855,0.6523207514613845,-0.6080640040917146,-0.4478605748408556,0.06447254953873355
2.22764005959034,-9.12134768486023,3.3019375893473626,0.6287954989051829,-0.7316425972828318,-0.18650895189105873,-0.18582179974995622
2.2336283393204215,-9.129731422662735,3.288763227760792,0.5130085455377785,-0.7478430426100984,0.10215150776565846,-0.4088007892434728
2.275546297430992,-9.1345220464468,3.2911585396528245,0.3219642624750963,-0.6543113560003745,0.37580865453377316,-0.5718247268834513
2.265965049862862,-9.091406432390214,3.2899610298871997,0.08364062996599968,-0.4647764101044559,0.5943311027570809,-0.6509667225940643
2.2539884904026986,-8.995593956708909,3.281577292084694,-0.17291962929159468,-0.20044228236028094,0.7275603937564706,-0.6329119738832473
2.2539884904026986,-8.884212099909783,3.2324735444784167,-0.39811737036389183,0.087829464708525,0.7497470509025472,-0.5212177128671731
2.2719533295929435,-8.878223381638527,3.1965438660979273,-0.5648656413556549,0.3632524264013705,0.6619270953354662,-0.33290689748056274
2.275546297430992,-8.944094604849816,3.1785788807272914,-0.6486135176781028,0.5853763269282388,0.47694608948729394,-0.0956947662101704
2.2635697379708293,-9.009965828061103,3.2145085591077804,-0.6371097684076207,0.7215743200085925,0.2218750905841368,0.15554127388576502
2.279139265269041,-9.067453313469887,3.20492731153965,-0.5320720732553579,0.7518078173463166,-0.0657806999942037,0.3838713510370175
2.2432095868885518,-9.12733581840992,3.2013344898819924,-0.34379739520267943,0.6684955543423701,-0.34996570124717724,0.5589642679339275
2.240814274996519,-9.182428284287454,3.203729801774025,-0.10883445318750645,0.48757434007951883,-0.5758358849951278,0.6471779957996688
2.240814274996519,-9.180032680034637,3.2097179353237153,0.1420196424258008,0.23513416622451824,-0.7171624800247918,0.6404844434362463
2.2647673939168453,-9.169253922700882,3.2396594801545144,0.37209362324563366,-0.05179805755300197,-0.7532467949990187,0.5398912507138622
2.2779416093230247,-9.154882051348686,3.237264168262482,0.5476225138616255,-0.3311050904895835,-0.6788581162579563,0.36004257991862226
2.2875228568911554,-9.072243937253953,3.2288804304599763,0.6427812496669053,-0.5618430902500673,-0.5049439010058735,0.12726454279129348
2.3210572233796123,-8.997988976240158,3.1941485542058947,0.6435167120276964,-0.7102147856104917,-0.2569471568469408,-0.12433566756799769
2.3354290947318077,-9.012360847592355,3.1558235639333727,0.5462519650410018,-0.7541271023178029,0.03567513904445539,-0.36280626881678446
2.3545915898680687,-9.059069575667381,3.1773813709616663,0.3700647015792343,-0.6848904415867137,0.31650969041333077,-0.5420321167077519
2.3462079982459545,-9.066255803704262,3.2324735444784167,0.1395930179678887,-0.5150299590329412,0.5508893644843955,-0.6416999600522991
2.3689634612202646,-9.099790170192719,3.242054792046547,-0.11129800380093595,-0.26956174140463207,0.7043250297948586,-0.6472058979376663
2.3306384709477426,-9.112963947057725,3.2839726039767267,-0.3458310406006936,0.015513014229247299,0.7543462602847523,-0.5577830737311535
2.3030923841893673,-9.104580793976783,3.3019375893473626,-0.529601693112779,0.2983058094749634,0.6936562656824465,-0.3864927887620257
2.265965049862862,-9.073441447019578,3.3258907082676887,-0.6356136635597013,0.5373373489643959,0.5311764938293677,-0.15847831557430622
2.2695580177009105,-9.057872065901757,3.318704772591591,-0.6473411164078559,0.7002058454792632,0.28438963793923777,0.09891302642872819
2.3150689436495306,-9.057872065901757,3.293553851544857,-0.5626880583419166,0.7553586440144062,0.000737622387712539,0.33587932926176706
2.3210572233796123,-9.072243937253953,3.2707985347509387,-0.395400203608793,0.6996330151890664,-0.2830192200901079,0.5235192872312995
2.2923134806752206,-9.103382699489593,3.2779844704270364,-0.17004846459669934,0.5411990419619448,-0.5252337586475602,0.6342843332802212
2.270755673646927,-9.14649831354618,3.293553851544857,0.08018824459924662,0.30339160568380985,-0.690261900580109,0.6519677044426563
2.2456048987805843,-9.165660808682443,3.293553851544857,0.3186562059392862,0.02110719679516379,-0.7539865966075786,0.5740356441859251
2.2432095868885518,-9.123743289113046,3.242054792046547,0.5104052486035826,-0.26421448907273326,-0.7071260299200746,0.4118858625534792
2.255186146348715,-9.106975813508035,3.2073226234316827,0.6290055560864621,-0.5158502498466805,-0.5519267362297037,0.18337777395394703
2.2575814582407476,-9.068650823235512,3.2085204255580906,0.6516538806963323,-0.6852683370845293,-0.31816929327575244,-0.06725196487257884
2.2575814582407476,-9.025535209178924,3.224089806675911,0.578691236125788,-0.7541783943826074,-0.037740580215881274,-0.30806988051844386
2.25997677013278,-9.021942095160485,3.200136687755585,0.42078581875668936,-0.7124832940249958,0.24821666132763573,-0.5036817839746794
2.246802554726601,-9.068650823235512,3.203729801774025,0.2011228546586812,-0.5662314421868565,0.49780280506572067,-0.6253990074197717
2.2432095868885518,-9.038709570765496,3.1893579304218296,-0.048047519637901256,-0.3369112271957111,0.6743181862160104,-0.6553451339443022
2.267162705808878,-9.050685837864876,3.172590747177601,-0.2956213853722253,-0.051221745263908436,0.7524133076750416,-0.5863945290981393
2.2635697379708293,-9.073441447019578,3.173788256943226,-0.4937495573608446,0.23577605113171102,0.7168707824876248,-0.4321079836502533
2.270755673646927,-9.097394565939904,3.1689976331591607,-0.619462611368137,0.4881499724066508,0.5761483330971411,-0.21454317939692294
2.275546297430992,-9.072243937253953,3.1522304499149323,-0.654359872437529,0.6689538907926508,0.3508923326711669,0.03447347109738362
2.2503955225646495,-9.01475645184517,3.128277330994606,-0.5932651223432607,0.7516713220043678,0.07418933587418916,0.2784289150389889
2.285127544999123,-8.970443328022958,3.0887548309564594,-0.44508227177163984,0.7242181215074334,-0.2133163486409481,0.4815662148005547
2.3078830079734325,-8.928525223731995,3.0791735833883287,-0.23147481606762604,0.5906047802379837,-0.4695805296362689,0.6140843014383472
2.347405654191971,-8.914153352379799,3.080371093153954,0.022326467466395137,0.364333687705847,-0.6603953811033204,0.6562319966829799
2.358184557706118,-8.975233951807022,3.0923476526141167,0.2671484937912546,0.08885069905609569,-0.7488356802643336,0.5999852994077105
2.3569869017601013,-9.042302684783936,3.10791732609272,0.4727141328588682,-0.19971004413575877,-0.7273475631604496,0.4556564157688745
2.3258478471636774,-9.085418298840523,3.142649202346802,0.6088389149957322,-0.4589502209135143,-0.599078296799186,0.24450984563907113
2.3222548793256284,-9.083022694587708,3.1558235639333727,0.6556237804932474,-0.6508292425680232,-0.3828477186902879,-0.002525819415015992
2.3162665995955467,-9.063860199451447,3.154625761806965,0.6061713528757464,-0.7471790108158297,-0.11037186974617824,-0.2491944363700727
2.313871287703514,-9.086615808606147,3.1139054596424103,0.4676902580845158,-0.7338730675074083,0.17831250981976215,-0.4592393625571343
2.3066853520274164,-9.123743289113046,3.085161716938019,0.2548280593089186,-0.608789726882735,0.4464707859804754,-0.6042363493674239
2.3018947282433513,-9.123743289113046,3.0791735833883287,0.00891465114483635,-0.39592905925106825,0.6422596426604473,-0.6562493889103476
2.3018947282433513,-9.130928932428361,3.080371093153954,-0.23835082933531837,-0.1249287903978395,0.7437252583710415,-0.6119268089778599
2.3258478471636774,-9.120150175094604,3.064801712036133,-0.4506686034923987,0.1643759609401467,0.7359585171049032,-0.47774827513238216
2.3450103422999384,-9.099790170192719,3.042046102881432,-0.5968401917632963,0.429490588107861,0.6201240901628199,-0.2734332332077618
2.352196277976036,-9.080627675056459,3.0444414147734644,-0.6554185206512837,0.6315429859184465,0.41320842847837985,-0.02896229201778286
2.359382213652134,-9.090208922624589,3.095940766632557,-0.6156864389439232,0.7421657116026914,0.1388251533762969,0.22549466116045644
2.336626750677824,-9.089010828137399,3.1115101477503777,-0.4854705139346455,0.7399326720875397,-0.15014010988387172,0.4407674764334179
2.3737540850043297,-9.075837051272392,3.122289197444916,-0.2839620037643574,0.6290455292789573,-0.41705511888252766,0.591381712877705
2.3833353325724604,-9.045895214080812,3.0863595190644264,-0.040709630272003604,0.4258261089503122,-0.6227443312633317,0.6551368931900716
2.3881259563565256,-9.01116333782673,3.064801712036133,0.2085917872192373,0.16003893178614323,-0.7370385464435341,0.6226164049186604
2.400102515816689,-8.997988976240158,3.0588132861256603,0.4272648914320047,-0.12926290699891846,-0.7430720793445037,0.4985776753149118
2.4408228179812435,-9.003977694511414,3.0935454547405246,0.5831820938650197,-0.3995382171826368,-0.639886733999117,0.3013516650985601
2.4276486025750637,-9.042302684783936,3.1258820191025736,0.6539297840579034,-0.6152170432807907,-0.43702364907869573,0.05379737284260786
2.397707203924656,-9.068650823235512,3.180974192619324,0.6259967606520496,-0.7345422414543132,-0.1735508420237931,-0.19610164814515565
2.3689634612202646,-9.079429580569268,3.19893917798996,0.5061585217849667,-0.7459844815291348,0.11537316238051319,-0.4171327576976967
2.3605798695981504,-9.099790170192719,3.2133110493421557,0.311984210432342,-0.6478973611014847,0.3873814632817656,-0.5769146070471076
2.3462079982459545,-9.081825184822083,3.2252876088023186,0.07197254888011638,-0.4547232086276217,0.6025105707973359,-0.651941537118604
2.3354290947318077,-9.072243937253953,3.231275742352009,-0.17868229669220992,-0.1947856984024051,0.7292136518281599,-0.6311724158533258
2.304290040135384,-9.071046427488328,3.2157063612341883,-0.4030964453478434,0.09375982170127464,0.7488672879953516,-0.517610023621032
2.3162665995955467,-9.072243937253953,3.1905554401874543,-0.5712882308007401,0.3745747226729491,0.6551857026348288,-0.32257592834238147
2.3078830079734325,-9.099790170192719,3.173788256943226,-0.650801790036183,0.5934530011768465,0.4660674420916984,-0.08397443004864803
2.304290040135384,-9.116557061076165,3.1689976331591607,-0.6347212889707928,0.725112151404582,0.20851695860384903,0.16691893597574445
2.329440815001726,-9.141707689762116,3.1330679547786713,-0.525449413098171,0.7502560871385406,-0.07961931351136994,0.3932931259281459
2.343812686353922,-9.111766437292099,3.1007313904166223,-0.3390382242303101,0.6652011298877466,-0.3560279322373278,0.5619649907010542
2.352196277976036,-9.068650823235512,3.10791732609272,-0.10289394745828805,0.48249196491957075,-0.5800815162818999,0.6481664707716642
2.359382213652134,-9.032721437215805,3.1246845093369484,0.14838653764197468,0.22892850577769888,-0.7189565878249627,0.6392766220597337
2.3989048598706724,-8.992000842690468,3.134265756905079,0.3829046228181221,-0.06512767141799858,-0.7517277077714987,0.5329614335097701
2.380940020680428,-8.987210218906403,3.1689976331591607,0.5552867675017357,-0.3430099800172659,-0.6719633965963175,0.34995135816391437
2.3498009660840036,-8.978826481103898,3.2097179353237153,0.6461573868972181,-0.5705715444162376,-0.4935276233057181,0.11558213138213609
2.358184557706118,-8.945292114615441,3.1833695045113566,0.6421458835877245,-0.7143759855097953,-0.24265458123253167,-0.13577322904429198
2.366568149328232,-8.984815199375152,3.160614187717438,0.5438519636885606,-0.7533159146032193,0.043832994357742565,-0.3671768552118252
2.343812686353922,-9.017151471376419,3.154625761806965,0.365672142355347,-0.6816830058445393,0.3239625999620421,-0.5446470395346314
2.366568149328232,-9.063860199451447,3.1390563806891443,0.1277462665320978,-0.5048770206734979,0.5612192040815127,-0.6432830561681815
2.371358773112297,-9.077034561038017,3.1594163855910304,-0.12379541627691533,-0.25682508187305886,0.7097471146871364,-0.644185226020441
2.32824315905571,-9.069848333001136,3.1701954352855686,-0.3571197327052403,0.028973182148113053,0.7540512546920086,-0.5504841110569472
2.293511136621237,-9.100987679958344,3.1642070093750956,-0.5379360994059517,0.31048393710266725,0.6876518828395717,-0.37597787938165855
2.3018947282433513,-9.130928932428361,3.184567306637764,-0.6397992479530334,0.5463948341210904,0.5202975360161108,-0.14628766721799488
2.3222548793256284,-9.130928932428361,3.185764816403389,-0.6477734070928212,0.7020612597971166,0.2765900288773551,0.10486923515057896
2.3258478471636774,-9.090208922624589,3.1953460639715194,-0.560712208556005,0.754671679754322,-0.00767676518949001,0.34060760741542817
2.3462079982459545,-9.068650823235512,3.185764816403389,-0.3863691938617487,0.6939076696880846,-0.2972127461049615,0.5299769575513845
2.35099862203002,-9.065057709217072,3.1905554401874543,-0.15862904744221487,0.5313534822110315,-0.5361401524960103,0.6364385588030799
2.3893236123025416,-9.060267085433006,3.1833695045113566,0.09248118183584617,0.29080888883773,-0.6964255632387744,0.6495143232037041
2.3989048598706724,-9.098592075705529,3.173788256943226,0.3299993294642031,0.007599083748292035,-0.7545210164322997,0.5672219426655956
2.4180673550069334,-9.068650823235512,3.1390563806891443,0.5190851764623694,-0.27671069313192487,-0.7019062741372621,0.4016333579400835
2.4072884514927866,-9.098592075705529,3.0983360785245897,0.6319589080397776,-0.5204576304602723,-0.5462635808765121,0.17705336385627027
2.400102515816689,-9.10577830374241,3.080371093153954,0.6520488848296865,-0.6877868165036458,-0.3104422087711903,-0.07353354234230308
2.434834538251162,-9.093801451921463,3.071987647712231,0.5733888878187027,-0.7544207747769065,-0.02217781781391839,-0.3187202885102481
2.4587878033518793,-9.045895214080812,3.0588132861256603,0.41131983979929,-0.7073876650074317,0.2630113286048009,-0.5111200659418075
2.4456134417653086,-8.984815199375152,3.045639216899872,0.18884073175583896,-0.5565180771944007,0.5095884197904554,-0.6284476511223772
2.443218129873276,-8.982419595122337,3.0600110882520677,-0.061397567683484304,-0.32390004550528667,0.681362453364302,-0.6535015733336872
2.4456134417653086,-9.008768318295479,3.0791735833883287,-0.3026180842991168,-0.043695755008500536,0.7530513951108554,-0.5826032718505485
2.4420204739272595,-9.019547075629236,3.0791735833883287,-0.49937948371067886,0.24289968505968332,0.7141366570460387,-0.42617919858889297
2.4516017214953902,-9.021942095160485,3.0827664050459864,-0.6246927498474677,0.4990815912513105,0.5658208834637195,-0.20130390308785606
2.448008753657341,-9.0243376994133,3.0863595190644264,-0.6544155481831823,0.6753467324857506,0.3366001548108219,0.048450149620571606
2.453997179567814,-8.964454609751701,3.115103261768818,-0.5880227691906079,0.7524037370014095,0.05796786777057623,0.2911315265749415
2.4599853131175045,-8.918943976163865,3.095940766632557,-0.4351707449856903,0.718953439072713,-0.22920903831939893,0.4911166785060495
2.486333743929863,-8.92373459994793,3.083964207172394,-0.21837800841876734,0.5798648622544041,-0.48267722352355413,0.6189430384561463
2.4779502984881403,-8.944094604849816,3.0947429645061493,0.03054710875793835,0.35548401177683575,-0.6652637179975692,0.6558370049285324
2.4516017214953902,-8.93930398106575,3.1115101477503777,0.27493628738015063,0.07881984824871456,-0.750028726124117,0.5963676545490233
2.436032194197178,-8.964454609751701,3.1330679547786713,0.4830247818794466,-0.21607604886661277,-0.7225860445509473,0.4448231214951878
2.4300439144670967,-8.947687718868256,3.1558235639333727,0.6147032346459652,-0.4722644064804125,-0.5881303516622861,0.23067065947165213
2.4228579787909985,-8.940501490831375,3.1689976331591607,0.6561026055104212,-0.6590516049503735,-0.367260430647309,-0.01732423549616558
2.436032194197178,-8.934513357281686,3.1965438660979273,0.6011522488240832,-0.7490220164505665,-0.09247639147039179,-0.26273581717514227
2.4563924914598467,-8.986012709140779,3.218101673126221,0.4579257235065355,-0.7289939905506693,0.195919880499362,-0.46956063923325425
2.4755549865961077,-9.027930813431741,3.236066366136074,0.24749385216067357,-0.6019040442356869,0.45552606118683486,-0.6074161030586881
2.4527993774414063,-9.074638956785202,3.227682920694351,0.0007613049607114293,-0.38638590685563934,0.6482891855099405,-0.6560689623423439
2.4120790752768517,-9.081825184822083,3.2588219752907754,-0.25165778595236443,-0.1072768353861102,0.7469269691680955,-0.6060199188875381
2.3881259563565256,-9.037512060999871,3.2444501039385796,-0.4609972618900012,0.18156634595430346,0.7323373090889301,-0.4671158874017331
2.3881259563565256,-9.012360847592355,3.237264168262482,-0.6026628585888003,0.4437862316323418,0.610292670317642,-0.25960376739890156
2.386928300410509,-8.966850214004516,3.1881601282954217,-0.6557990891589005,0.6408976299805341,0.39872851864245773,-0.013905069754663494
2.4192650109529494,-8.971640837788582,3.1390563806891443,-0.6125790451960519,0.7439728945129849,0.12870399601725457,0.2338515063578917
2.4372298501431944,-9.017151471376419,3.1007313904166223,-0.47937103382530255,0.7378842123257355,-0.16024134811337482,0.4472728602145425
2.416869699060917,-9.081825184822083,3.0779757812619213,-0.275831726046729,0.6234979558834549,-0.42566927784924385,0.5949561528470301
2.397707203924656,-9.080627675056459,3.1019289001822474,-0.025726836081721213,0.4117953762426388,-0.6324651814484643,0.6555535769605478
2.39650954797864,-9.077034561038017,3.1246845093369484,0.22252815788622402,0.14351825304373853,-0.740625375704717,0.6175417255969706
2.3893236123025416,-9.069848333001136,3.1498351380228997,0.4381052317683646,-0.14577922431479926,-0.7400753602901544,0.4889792273162135
2.4072884514927866,-9.042302684783936,3.185764816403389,0.5894567941834571,-0.41372319883114334,-0.630923208938653,0.28863420961909647
2.420462666898966,-9.072243937253953,3.2097179353237153,0.6543066342748708,-0.6209362594518795,-0.42919712216632516,0.04594366513397986
2.409683763384819,-9.123743289113046,3.2288804304599763,0.62314336151844,-0.7370457490720358,-0.16450532917047278,-0.20345493713560978
2.382137676626444,-9.10577830374241,3.2157063612341883,0.496458280720328,-0.743929071202256,0.13119986355041371,-0.42765091877455086
2.358184557706118,-9.078232070803642,3.173788256943226,0.2989031068462749,-0.6401038152796168,0.4008812893670725,-0.5832822903342052
2.3402197185158733,-9.106975813508035,3.1582188758254053,0.0574544396378031,-0.44234578950867576,0.6117808105116815,-0.6532636755243032
2.355789245814085,-9.145300803780556,3.1438470044732094,-0.19245446825823573,-0.1797041111288846,0.7328710406529366,-0.6273497811134543
2.378544708788395,-9.14649831354618,3.0983360785245897,-0.4141491600603622,0.10924750432131682,0.746406545996591,-0.5093355712242168
2.3953118920326233,-9.12134768486023,3.1007313904166223,-0.5751241414404517,0.3821804502777004,0.650367137248911,-0.3165326399355581
2.343812686353922,-9.10577830374241,3.122289197444916,-0.651668720306319,0.5990187460562693,0.4588392923014284,-0.07727175866915231
2.3545915898680687,-9.074638956785202,3.1438470044732094,-0.6308431720653106,0.7297494521694886,0.19330576354184784,0.17926380309033801
2.3653704933822155,-9.072243937253953,3.1558235639333727,-0.5168362117725501,0.7490325364109012,-0.0951279748146291,0.4034615942145165
2.333033782839775,-9.110568927526474,3.1881601282954217,-0.3270028577522179,0.6583100649874021,-0.3696048609718237,0.5684093912877971
2.3054876960814,-9.142905784249306,3.2073226234316827,-0.08916696762413044,0.4709203167375166,-0.5898401046124425,0.6499014988129642
2.294708792567253,-9.165660808682443,3.2169038709998135,0.16169909881409705,0.21443000102346518,-0.7234485632918899,0.6359994908603984
2.309080663919449,-9.153684541583061,3.203729801774025,0.3888402612342725,-0.07350312232207984,-0.7508583725002551,0.5287837428461999
2.3222548793256284,-9.098592075705529,3.1749860590696337,0.5589609262658344,-0.3506458176764431,-0.6680655022672568,0.34394574882451595
2.3354290947318077,-9.041104590296746,3.1174985736608507,0.6479649686090208,-0.5807877310532772,-0.4819970832839373,0.10249791519476936
2.352196277976036,-9.012360847592355,3.076778271496296,0.6387764027840817,-0.719473102417247,-0.22843370660710732,-0.14879920641612288
2.313871287703514,-8.982419595122337,3.057615776360035,0.5357475928714488,-0.7526123000583138,0.058684073957141716,-0.3782927728587682
2.313871287703514,-8.994396446943284,3.0743829596042636,0.3540399485189334,-0.675276837370212,0.33721075534523964,-0.5522189912013967
2.309080663919449,-9.021942095160485,3.10432421207428,0.12032108047202285,-0.49874118129392275,0.5662927049562149,-0.6450524350693987
2.2887205128371715,-9.055476461648942,3.147439826130867,-0.1310473846842999,-0.24890934260135392,0.7121982668673691,-0.6431518878183307
2.3006970722973348,-9.083022694587708,3.1522304499149323,-0.36823010387771815,0.044391266933071195,0.7531352031520467,-0.5433446160508145
2.331836126893759,-9.074638956785202,3.1558235639333727,-0.5454251260503641,0.32460904659087525,0.6810644977848829,-0.36509115108604395
2.3354290947318077,-9.074638956785202,3.137858578562737,-0.6425057181681767,0.5571500770084806,0.5089396339809706,-0.13323153821057213
2.3605798695981504,-9.073441447019578,3.128277330994606,-0.6452434031594921,0.7078117097782839,0.2621065961495524,0.11816795857928242
2.380940020680428,-9.044697704315187,3.1306726428866387,-0.5532218789272381,0.7545329894814015,-0.0232178679565313,0.3522590681132693
2.371358773112297,-9.055476461648942,3.1306726428866387,-0.3799762181587672,0.6904630755144996,-0.30510440884752116,0.534593410627763
2.3569869017601013,-9.056674556136132,3.1139054596424103,-0.15089213384095435,0.5250184970574693,-0.5422282052188853,0.6384165686740485
2.377347052842379,-9.072243937253953,3.0923476526141167,0.10642668631138281,0.27605718442438754,-0.7023380416098134,0.6474465743798095
2.3689634612202646,-9.090208922624589,3.0791735833883287,0.3421265521373239,-0.008474283946972949,-0.7544258917763582,0.5601064029732741
2.3533939339220526,-9.073441447019578,3.080371093153954,0.5275906744165832,-0.29176648476468575,-0.6957205301542192,0.3905039597221079
2.370161117166281,-9.044697704315187,3.10432421207428,0.6355955989989457,-0.5321778481904365,-0.5348388974698546,0.16356138352862698
2.390521268248558,-9.042302684783936,3.109114835858345,0.6502848158614878,-0.6944219949736022,-0.29541173082413813,-0.08740515115461149
2.3929165801405907,-9.059069575667381,3.1438470044732094,0.5695012369518619,-0.7546785086779522,-0.012595851323153802,-0.3255303890259192
2.4228579787909985,-9.072243937253953,3.1630094996094704,0.4050983380442114,-0.7041272929139308,0.2720220314381391,-0.51585279518462
2.4264509466290476,-9.084220204353333,3.1773813709616663,0.17526615847869254,-0.5454654597675187,0.521771183374526,-0.6320633181040314
2.4036954836547375,-9.075837051272392,3.1977413758635524,-0.07544626310991195,-0.30917400184898025,0.6884018196828571,-0.6517838849041665
2.4084861074388026,-9.042302684783936,3.1642070093750956,-0.31510400899810415,-0.02752984698844166,0.7539790303272443,-0.5757318758457831
2.400102515816689,-9.061465179920196,3.1438470044732094,-0.5085028493068827,0.258197192597418,0.7088480707629837,-0.41508249126792796
2.3641728374361994,-9.068650823235512,3.1390563806891443,-0.6271780346704842,0.506007986601199,0.5596120547975091,-0.19348896208305902
2.3689634612202646,-9.063860199451447,3.1318704450130466,-0.6537727571449816,0.6794519276720549,0.3282368707821285,0.05645189684088319
2.3953118920326233,-9.079429580569268,3.1330679547786713,-0.5844636722086707,0.7531020254796692,0.04866484688009547,0.2981128775563243
2.4036954836547375,-9.098592075705529,3.15342825204134,-0.42474913861442554,0.7139922424881517,-0.24461348507047606,0.4999674887777402
2.385730644464493,-9.081825184822083,3.118696083426476,-0.20558890462515603,0.5696012311847642,-0.49503451013115124,0.6230798291607909
2.4084861074388026,-9.04350019454956,3.122289197444916,0.043769334129294755,0.34163523202476714,-0.6727918481408495,0.6547677013296257
2.4036954836547375,-9.027930813431741,3.123486707210541,0.28669035463810605,0.06360757357375278,-0.7518287904738067,0.5903525954514214
2.397707203924656,-9.007570223808289,3.147439826130867,0.48760239844838266,-0.22380047382422488,-0.7205691126968236,0.43924640325305975
2.3953118920326233,-8.995593956708909,3.1510329401493076,0.616938647385646,-0.4783759688186202,-0.5835563509978148,0.22361825289750248
2.385730644464493,-8.988407728672028,3.1390563806891443,0.655356592416141,-0.6660825675581088,-0.35479715814968477,-0.03099558905407479
2.371358773112297,-9.03032583296299,3.128277330994606,0.5955836105291138,-0.7505869179160611,-0.07828664685573097,-0.27526467707727953
2.3737540850043297,-9.029128323197366,3.1067195239663126,0.44838342394241415,-0.7248795084826052,0.20970161410545732,-0.4790900086176499
2.378544708788395,-9.03391894698143,3.0947429645061493,0.23536872610623463,-0.5927236612466932,0.46693345402149455,-0.6125792795100078
2.3833353325724604,-9.008768318295479,3.085161716938019,-0.012178107421171131,-0.3735269982770778,0.6555971045226231,-0.6561415333594628
2.3881259563565256,-8.977628971338273,3.1139054596424103,-0.2579076520119251,-0.09949864184645031,0.7479862969494504,-0.6034071286289682
2.400102515816689,-8.988407728672028,3.1390563806891443,-0.465805731359642,0.18916922490734947,0.7305509921691958,-0.4620987695515597
2.3989048598706724,-9.000384580492973,3.15342825204134,-0.6076072491669735,0.45561924855835695,0.6017422116897952,-0.2472465202455541
2.3749517409503462,-9.021942095160485,3.160614187717438,-0.6559686186625897,0.648435783515885,0.3863106739787744,-0.0005188025630567676
2.397707203924656,-9.032721437215805,3.1630094996094704,-0.6079787026559629,0.746091724748362,0.11413984765724909,0.24633540256237357
2.382137676626444,-9.066255803704262,3.1785788807272914,-0.4707168289652377,0.7342022577799239,-0.1747902165775728,0.4569694648316654
2.3653704933822155,-9.098592075705529,3.1905554401874543,-0.26433846349570794,0.6144924758722533,-0.4381114243646658,0.6004852651433508
2.355789245814085,-9.126138308644295,3.1785788807272914,-0.01918122155980607,0.40454488647330317,-0.6370923464745829,0.6558116022390011
2.370161117166281,-9.150091427564622,3.1689976331591607,0.22875899279870662,0.1352412414655289,-0.7424932188251849,0.614884501202624
2.352196277976036,-9.094999546408653,3.160614187717438,0.4476242292385155,-0.16068681819429892,-0.7375143649310585,0.47946309282107935
2.3689634612202646,-9.068650823235512,3.1258820191025736,0.5951179835673241,-0.42615702559615404,-0.6230004402233531,0.2758536326592589
2.382137676626444,-9.077034561038017,3.116300771534443,0.655254951846148,-0.6290340940777641,-0.41707199289113356,0.031749162424969064
2.3881259563565256,-9.111766437292099,3.134265756905079,0.6192241957924933,-0.739581710207719,-0.1499050569912559,-0.2170455324576245
2.377347052842379,-9.144103294014931,3.1498351380228997,0.4923322743247615,-0.7415393510235251,0.1392537638293061,-0.4339777780038844
2.3689634612202646,-9.13691706597805,3.15342825204134,0.2931898216164698,-0.6346501664499761,0.4079596372278791,-0.5872204263463743
2.355789245814085,-9.111766437292099,3.1642070093750956,0.04488830998388341,-0.42896050070920805,0.6207995393916134,-0.654664693067571
2.3414173744618894,-9.110568927526474,3.1438470044732094,-0.20448699360173192,-0.16405296138458125,0.7366419946524593,-0.6234021711729278
2.3653704933822155,-9.102185189723969,3.10791732609272,-0.42390781618543083,0.1249525620871255,0.7443807121146989,-0.500586032602165
2.3917189241945747,-9.12733581840992,3.091150142848492,-0.5811076710140134,0.39560594813338495,0.6428298894716519,-0.30426886415145793
2.3737540850043297,-9.141707689762116,3.1055220142006874,-0.6529811454999365,0.6081566656270507,0.44693445025136924,-0.06333001542305618
2.378544708788395,-9.145300803780556,3.1007313904166223,-0.6289980311202866,0.7314554932273684,0.18544022443152017,0.18693919181674518
2.385730644464493,-9.123743289113046,3.083964207172394,-0.512674147115649,0.7473923480343954,-0.10323462519786702,0.4097712888174708
2.3462079982459545,-9.091406432390214,3.0588132861256603,-0.3156337460805148,0.6502119345580057,-0.3828089262429326,0.57537562034053
2.3258478471636774,-9.069848333001136,3.0540226623415947,-0.07613219442364012,0.4584965183051135,-0.5992967582094592,0.6517884835389184
2.352196277976036,-9.063860199451447,3.0827664050459864,0.1745310561616632,0.19950498490182517,-0.7277589981545453,0.6325373601926683
2.385730644464493,-9.089010828137399,3.0791735833883287,0.3996263678369289,-0.08880178487963863,-0.7493746160512592,0.5204331791399178
2.390521268248558,-9.086615808606147,3.0743829596042636,0.5660609738473054,-0.3640692619239939,-0.6609473386720288,0.3319294532148677
2.3953118920326233,-9.060267085433006,3.071987647712231,0.6493846756337482,-0.5858940466112584,-0.4754651473867382,0.09466046069000247
2.390521268248558,-9.098592075705529,3.0540226623415947,0.6372988959095512,-0.7217233338435513,-0.22013931456599775,-0.15653826637799964
2.3761493968963623,-9.11535955131054,3.0683945336937906,0.5279375906004574,-0.7509326332005403,0.07441346340630618,-0.3896725770302103
2.347405654191971,-9.1345220464468,3.10432421207428,0.3426429969971129,-0.6677369558425803,0.3514010651907731,-0.5596788595200918
2.3186619114875793,-9.133324536681176,3.1127079498767856,0.10706692238515146,-0.48645395265581093,0.5767866399748482,-0.6474692255412877
2.3354290947318077,-9.11895266532898,3.065999221801758,-0.14419719131871023,-0.23376876884549916,0.71744064262939,-0.640186111245615
2.362975181490183,-9.080627675056459,3.051627350449562,-0.374341857992525,0.05323387487384595,0.7527250898494907,-0.5389241755865998
2.3941142360866072,-9.01116333782673,3.0671970239281654,-0.5495703313517925,0.33237377372483573,0.67746044353536,-0.3585351766321765
2.3917189241945747,-8.971640837788582,3.083964207172394,-0.6441126009190652,0.5626863363007921,0.5027449239847885,-0.12550133738410124
2.385730644464493,-8.965652704238892,3.0887548309564594,-0.6427774501112495,0.7127822717167962,0.24767941513126768,0.13203594236024077
2.4108814193308357,-8.947687718868256,3.071987647712231,-0.5459098951503294,0.7535448857542015,-0.038628161912912996,0.36422569464258514
2.3941142360866072,-9.009965828061103,3.099533588290215,-0.3687780868976126,0.6835845245326354,-0.3193727197574691,0.5428775058135535
2.3414173744618894,-9.078232070803642,3.1450445142388346,-0.13748204702180883,0.5131304261859623,-0.5532221195700397,0.6416705844024163
2.3653704933822155,-9.135719556212425,3.134265756905079,0.11397102224675376,0.26729151019093733,-0.7057176077231972,0.64616446266978
2.3845329885184765,-9.100987679958344,3.1210913953185084,0.3487179891455473,-0.01784176946463749,-0.7544721995814997,0.5557419683336057
2.3689634612202646,-9.062662689685823,3.1139054596424103,0.5357368535911254,-0.3066985279048013,-0.6896018914308709,0.3786439858498668
2.3797423647344114,-9.038709570765496,3.10432421207428,0.6389554066008414,-0.5434685284019476,-0.5235359605687046,0.14929181157578103
2.4276486025750637,-8.989605823159218,3.127079821228981,0.6483665147912873,-0.7003586930691447,-0.28054779937747376,-0.10203673752299107
2.4563924914598467,-8.968047723770143,3.1306726428866387,0.5625686607389931,-0.7543240734488131,0.003595023391623977,-0.33837666878308714
2.467171248793602,-8.968047723770143,3.1318704450130466,0.3941015047778739,-0.6974783019237447,0.2872470648392857,-0.5250687059981772
2.4504040655493737,-9.00517520427704,3.1139054596424103,0.16775791639823387,-0.5382019375322495,0.5286751481775885,-0.6345853320253002
2.4420204739272595,-9.0243376994133,3.127079821228981,-0.08319248981015728,-0.29992189920080403,0.6924391965704452,-0.6508869510689594
2.416869699060917,-9.03391894698143,3.1258820191025736,-0.3272361387707164,-0.010653335374372599,0.7547229963857319,-0.5685034869324691
2.4324392263591292,-9.067453313469887,3.128277330994606,-0.5172109024545356,0.27381533472786945,0.7033150218798029,-0.40356662999837095
2.436032194197178,-9.051883932352066,3.1127079498767856,-0.6312520594537538,0.5180094912439883,0.5486306030761581,-0.17941980321254952
2.4216603228449824,-9.042302684783936,3.137858578562737,-0.6526588842271829,0.6861332105901866,0.31338462448189874,0.071046993623028
2.4180673550069334,-9.02673271894455,3.15342825204134,-0.5782929197206637,0.7535171087818345,0.03220094070149907,0.3110504222661552
2.436032194197178,-8.987210218906403,3.123486707210541,-0.4190016654319811,0.7103464548162152,-0.2537013272575742,0.5054514368789609
2.4587878033518793,-8.944094604849816,3.0983360785245897,-0.19813727216504,0.5629343496751738,-0.5023723339519367,0.6256744979735629
2.4719618725776673,-8.944094604849816,3.05282515257597,0.057981061915115005,0.32670968339714,-0.6803849845718705,0.6534334334902613
2.461183115243912,-8.964454609751701,3.0504298406839374,0.2997334997429726,0.047106621494533894,-0.7532810819904212,0.5835309819183044
2.4527993774414063,-9.02673271894455,3.0432439050078393,0.49741145222836924,-0.23939662812922027,-0.7156053078196521,0.4279954965332763
2.436032194197178,-9.056674556136132,3.0408485931158067,0.6220575622822027,-0.4907937090705011,-0.5728835511193906,0.2096911090179562
2.3953118920326233,-9.089010828137399,3.0492320385575296,0.6554020609949224,-0.6701933707533303,-0.3460368496487263,-0.03933805952359628
2.3797423647344114,-9.104580793976783,3.0624064001441003,0.5926120250533028,-0.7512017449581115,-0.06842996144623333,-0.28253188582986394
2.4072884514927866,-9.072243937253953,3.0624064001441003,0.4383000077351799,-0.719972004888344,0.22583646773106614,-0.48839666792388625
2.4036954836547375,-9.03391894698143,3.0636039099097254,0.22238378031157255,-0.582403118256171,0.48004960591561696,-0.6171745603636655
2.3989048598706724,-8.993198352456094,3.0791735833883287,-0.02617719731612238,-0.3593936212528237,0.6638200783074675,-0.6553578281971782
2.4036954836547375,-8.969245233535768,3.085161716938019,-0.270948796392339,-0.08360991593896953,0.7502200573802019,-0.5972989177913081
2.4084861074388026,-8.992000842690468,3.0947429645061493,-0.4759399368733778,0.20448035319171382,0.72650570805114,-0.45150683031009486
2.42884625852108,-9.03391894698143,3.0779757812619213,-0.6110106096414557,0.462576090217645,0.5961371646418931,-0.23939481322129372
2.415672043114901,-9.087813318371774,3.0683945336937906,-0.6563337598380523,0.6527969393438569,0.37818033385415645,0.007860455845395053
2.3761493968963623,-9.11775457084179,3.0827664050459864,-0.6028138439040426,0.7481315781540985,0.0978188670198317,0.25951123409449367
2.366568149328232,-9.135719556212425,3.095940766632557,-0.461044617815251,0.7300395500458429,-0.1908891533277464,0.46694908383491707
2.378544708788395,-9.12853391289711,3.0875570288300516,-0.25163355437936236,0.604744791221099,-0.4515451783201758,0.6058640472392783
2.3749517409503462,-9.111766437292099,3.083964207172394,-0.0053050014386006195,0.39068895036580953,-0.6458994060589073,0.655856659853774
2.378544708788395,-9.074638956785202,3.1174985736608507,0.24184899243832234,0.11924508318384866,-0.7454468077113013,0.6095889860111282
2.386928300410509,-9.051883932352066,3.122289197444916,0.45351102270270227,-0.16972051307176683,-0.7355513462740989,0.47380050308559823
2.4036954836547375,-9.047093308568002,3.1330679547786713,0.5985778572792015,-0.4337669314850278,-0.6176514032203099,0.2684353591185134
2.4408228179812435,-9.036313966512681,3.142649202346802,0.655890214561198,-0.6378930692322909,-0.4032324479973143,0.01743707401964405
2.4695665606856347,-9.03391894698143,3.1318704450130466,0.6144620195538552,-0.7425887007261345,-0.13360646400576862,-0.2305379813730148
2.480345610380173,-9.057872065901757,3.1258820191025736,0.48271984584271965,-0.7382257095179824,0.15568399662289006,-0.4447098440913765
2.4683690509200096,-9.086615808606147,3.109114835858345,0.2800334665214188,-0.6254446446672101,0.4220870692885536,-0.5935004296750799
2.4599853131175045,-9.126138308644295,3.103126702308655,0.03624106153835212,-0.4208107240732692,0.626472346205854,-0.6550857343911839
2.4456134417653086,-9.174044546484948,3.10432421207428,-0.2128749462980267,-0.15432609423391683,0.7388461735200603,-0.6204627674179019
2.443218129873276,-9.217160160541535,3.1258820191025736,-0.43071045563159943,0.1348416627815503,0.7426413141018512,-0.4947626784398784
2.409683763384819,-9.183625794053079,3.148637628257275,-0.5879960619306317,0.41005387645208996,0.633634742102605,-0.29090112265381207
2.371358773112297,-9.14649831354618,3.157021073698998,-0.6543968191852961,0.6181742427989989,0.43276052820324995,-0.04841212461042469
2.378544708788395,-9.12494079887867,3.160614187717438,-0.624684763628426,0.735489025639486,0.16838106852506518,0.20117816734609714
2.4120790752768517,-9.11535955131054,3.1630094996094704,-0.5032269460618717,0.7447902115126502,-0.1207229966549032,0.4212791707061293
2.444415785819292,-9.140510179996491,3.137858578562737,-0.3078378676222997,0.6447191707218611,-0.3920665305967135,0.5795315985753733
2.4384275060892104,-9.12733581840992,3.122289197444916,-0.06725770148000651,0.4499934257432551,-0.6058025877736417,0.6526756798182654
2.4384275060892104,-9.100987679958344,3.1258820191025736,0.1891144795585995,0.18250389237708434,-0.7323394353785388,0.6281775181252006
2.415672043114901,-9.055476461648942,3.1366610687971117,0.41164034821232603,-0.10618569757682061,-0.7471546569966466,0.5109175470484276
2.425253290683031,-9.003977694511414,3.1330679547786713,0.5737391716759667,-0.37928074641138326,-0.6522904641840954,0.318569660546476
2.4036954836547375,-9.012360847592355,3.1498351380228997,0.6515498113901155,-0.5967357711281516,-0.4616069164062538,0.07942491711991329
2.3929165801405907,-9.032721437215805,3.1582188758254053,0.6336442689059919,-0.7265481789336723,-0.2031467512351956,-0.1713303289944341
2.4084861074388026,-9.018349565863609,3.1510329401493076,0.522678443047796,-0.7496625302608847,0.08516143395975052,-0.3969393732824939
2.4372298501431944,-9.038709570765496,3.1366610687971117,0.33497425203223186,-0.6626531937219367,0.36095233986005976,-0.5642662524687369
2.4420204739272595,-9.031523342728615,3.147439826130867,0.09201510952215404,-0.47296762243293194,0.5881296368508613,-0.6495678394189783
2.436032194197178,-8.986012709140779,3.1366610687971117,-0.15916009813689364,-0.2171182113663423,0.7228006381711946,-0.6364644396299362
2.4504040655493737,-8.92612961947918,3.134265756905079,-0.3869760238349864,0.07060702714738787,0.7513323239582647,-0.5298716294252271
2.42884625852108,-8.951280832886697,3.118696083426476,-0.5579313010439102,0.3479427676976695,0.6695515478209645,-0.345469562382688
2.4072884514927866,-8.980024575591088,3.1450445142388346,-0.6469703480847918,0.5742088701986879,0.4894243900982618,-0.11035084259367534
2.377347052842379,-9.007570223808289,3.1594163855910304,-0.6410247857615705,0.7161401704729232,0.23745452512463516,0.14087522412468076
2.390521268248558,-9.051883932352066,3.1558235639333727,-0.5410087568093416,0.7529409337716179,-0.04938190678278634,0.37141742364788277
2.385730644464493,-9.059069575667381,3.1390563806891443,-0.3564231706607157,0.6762274528111389,-0.33518988015020595,0.5507510324326335
2.390521268248558,-9.035116456747055,3.142649202346802,-0.12308217694135912,0.5006684705270087,-0.5648124864075106,0.6443358716831521
2.382137676626444,-9.0243376994133,3.1510329401493076,0.12836264150990243,0.25161361845547037,-0.7115635914649723,0.6433435121098333
2.3881259563565256,-9.000384580492973,3.1630094996094704,0.3609931522426671,-0.034369659187784354,-0.7538778893540105,0.5478784523088678
2.3749517409503462,-9.041104590296746,3.141451692581177,0.5405786712488773,-0.3153115855041713,-0.6855636339236397,0.37196210570306426
2.3641728374361994,-9.054278951883317,3.0923476526141167,0.6407909326684479,-0.5499993505512327,-0.5166152065921606,0.1414087102015359
2.3797423647344114,-9.055476461648942,3.0743829596042636,0.6458258831595524,-0.7064317686605387,-0.26537678478806065,-0.11592345303638317
2.390521268248558,-9.097394565939904,3.057615776360035,0.554905996485405,-0.7543342517291594,0.01975419508239122,-0.3502412647153328
2.3893236123025416,-9.141707689762116,3.0755804693698883,0.38261958081078756,-0.6915057143267548,0.30194180512836677,-0.5331540581759133
2.4108814193308357,-9.145300803780556,3.0791735833883287,0.15425650530187507,-0.5272518312552303,0.5397574219720898,-0.637865473619714
2.4312415704131127,-9.150091427564622,3.0815688952803613,-0.0967580375336393,-0.2856538585741377,0.6984052638453855,-0.6490530353425695
2.4084861074388026,-9.144103294014931,3.0827664050459864,-0.33358419560299746,-0.002160932908804618,0.7546254536422359,-0.5650286183266425
2.378544708788395,-9.09619705617428,3.0827664050459864,-0.5214625084653345,0.28161424850439776,0.7002021186684114,-0.3981045846465626
2.3569869017601013,-9.051883932352066,3.0504298406839374,-0.6343655432789921,0.5291195979870574,0.538333164544272,-0.16676394237998118
2.3641728374361994,-9.087813318371774,3.0180929839611057,-0.6505708519398332,0.692561607798445,0.30006604579297513,0.08412106853862941
2.3749517409503462,-9.10577830374241,3.0156976720690727,-0.5713139246051846,0.754416296146955,0.017753340520435267,0.32270926630714664
2.390521268248558,-9.129731422662735,3.0240814098715783,-0.40822273362148903,0.7055748678511493,-0.26715779218992347,0.5139504058599795
2.3893236123025416,-9.157277655601503,3.027674231529236,-0.18527762136238105,0.5532097680432089,-0.51284967591891,0.629774853002044
2.3953118920326233,-9.12494079887867,3.0168954741954805,0.06489492307260786,0.319656913413012,-0.6833173141339748,0.6532117228520913
2.371358773112297,-9.075837051272392,2.980965795814991,0.3055297675638833,0.03921175675322462,-0.753554807026441,0.5807487856827845
2.3545915898680687,-9.036313966512681,2.980965795814991,0.5052343004692554,-0.25357267229384756,-0.7109761229359516,0.4182728225812213
2.352196277976036,-9.000384580492973,2.9641986125707627,0.6254497770457822,-0.5021910074555046,-0.5636331442589628,0.19731813681707486
2.3689634612202646,-9.019547075629236,2.9306642460823062,0.653847381269816,-0.677079423522613,-0.3335870129297151,-0.05260001001445015
2.377347052842379,-9.031523342728615,2.9402454936504365,0.5862803953088528,-0.7525731790103698,-0.05454109514120777,-0.2948460229535392
2.390521268248558,-9.029128323197366,2.9546173650026324,0.4326429890573378,-0.7175598024222559,0.2325141539928565,-0.4938270366841527
2.3929165801405907,-9.042302684783936,2.951024250984192,0.21550076665622508,-0.5771975374162377,0.48542167532901515,-0.6202968801243338
2.420462666898966,-9.025535209178924,2.9665939244627952,-0.03944144393277104,-0.3459124561005191,0.6703125230436119,-0.65533965747993
2.4420204739272595,-9.037512060999871,2.976175172030926,-0.2828329848771713,-0.0682207804385203,0.7513602501405982,-0.592291484229249
2.4312415704131127,-9.063860199451447,3.0240814098715783,-0.4846703933490799,0.2194958743309519,0.7219917069849708,-0.4423167937208207
2.4216603228449824,-9.081825184822083,3.0636039099097254,-0.6153498742307956,0.47500183053602507,0.5865242938395913,-0.227391833643027
2.415672043114901,-9.066255803704262,3.070789845585823,-0.6556378551139115,0.6607158727853981,0.36490496704528025,0.0209261419459539
2.4216603228449824,-9.03990708053112,3.065999221801758,-0.5995731867823565,0.749398161654806,0.0896332102678923,0.2662335001781678
2.425253290683031,-9.03032583296299,3.076778271496296,-0.45536712756407705,0.7279528530410845,-0.19883546645543138,0.47242976214759996
